##Temp./Â°C;Time/min;Mass/%;Segment;Alpha;F_alpha;G_alpha
118.956;0.0;100.0;1;0.0;1;0.0
135.01401;0.5;99.98862;1;0.00926513930275557;1;0.00926513930275557
152.035;1.0;99.98025;1;0.01607965740152886;1;0.01607965740152886
169.905;1.5;99.97407;1;0.021111165388437568;1;0.021111165388437568
188.27299;2.0;99.9695;1;0.02483187598717159;1;0.02483187598717159
206.91499;2.5;99.96511;1;0.02840603780958766;1;0.02840603780958766
225.54601;3.0;99.96062;1;0.03206161561883804;1;0.03206161561883804
243.96001;3.5;99.95486;1;0.036751176461012565;1;0.036751176461012565
261.983;4.0;99.94806;1;0.04228746356634721;1;0.04228746356634721
279.45901;4.5;99.94004;1;0.0488170257111715;1;0.0488170257111715
296.271;5.0;99.93195;1;0.055403579046780956;1;0.055403579046780956
312.32901;5.5;99.92393;1;0.061933141191605236;1;0.061933141191605236
327.59201;6.0;99.91688;1;0.06767296826404301;1;0.06767296826404301
341.98999;6.5;99.91121;1;0.07228925471805855;1;0.07228925471805855
355.547;7.0;99.90577;1;0.07671828440232165;1;0.07671828440232165
368.246;7.5;99.90069;1;0.0808542165339604;1;0.0808542165339604
380.19199;8.0;99.89518;1;0.08534023740902023;1;0.08534023740902023
391.47299;8.5;99.88981;1;0.08971227590249814;1;0.08971227590249814
402.159;9.0;99.8838;1;0.0946053767117758;1;0.0946053767117758
412.39301;9.5;99.87726;1;0.09992998225130884;1;0.09992998225130884
422.254;10.0;99.87018;1;0.10569423411980731;1;0.10569423411980731
431.862;10.5;99.8622;1;0.11219122986989556;1;0.11219122986989556
441.28;11.0;99.85285;1;0.1198036246397307;1;0.1198036246397307
450.64099;11.5;99.8417;1;0.12888150717274538;1;0.12888150717274538
459.92499;12.0;99.82805;1;0.1399947893768376;1;0.1399947893768376
469.237;12.5;99.811;1;0.15387621513359714;1;0.15387621513359714
478.577;13.0;99.78987;1;0.17107941315357136;1;0.17107941315357136
487.98901;13.5;99.76429;1;0.19190562258804836;1;0.19190562258804836
497.45001;14.0;99.73352;1;0.2169573217396969;1;0.2169573217396969
506.96701;14.5;99.69768;1;0.2461368114242857;1;0.2461368114242857
516.53601;15.0;99.65719;1;0.27910214449709214;1;0.27910214449709214
526.14301;15.5;99.61257;1;0.3154299578265131;1;0.3154299578265131
535.78101;16.0;99.56559;1;0.3536791884454412;1;0.3536791884454412
545.466;16.5;99.5183;1;0.39218080862358234;1;0.39218080862358234
555.20203;17.0;99.47367;1;0.42851676355169016;1;0.42851676355169016
564.992;17.5;99.43413;1;0.4607086447494839;1;0.4607086447494839
574.84601;18.0;99.40127;1;0.4874619380261512;1;0.4874619380261512
584.758;18.5;99.37569;1;0.5082881474606281;1;0.5082881474606281
594.70001;19.0;99.35589;1;0.52440851285558;1;0.52440851285558
604.65997;19.5;99.34114;1;0.5364173709149537;1;0.5364173709149537
614.61401;20.0;99.3298;1;0.5456499438229617;1;0.5456499438229617
624.53601;20.5;99.3208;1;0.5529773826388478;1;0.5529773826388478
634.42798;21.0;99.31338;1;0.55901844886262;1;0.55901844886262
644.26898;21.5;99.30723;1;0.564025532053468;1;0.564025532053468
654.09802;22.0;99.30187;1;0.5683894289482705;1;0.5683894289482705
663.935;22.5;99.2969;1;0.5724358034943765;1;0.5724358034943765
673.87402;23.0;99.29248;1;0.5760343901128417;1;0.5760343901128417
683.85303;23.5;99.28791;1;0.5797551007115758;1;0.5797551007115758
693.83698;24.0;99.28341;1;0.5834188201195131;1;0.5834188201195131
703.80499;24.5;99.27903;1;0.5869848403432422;1;0.5869848403432422
713.72601;25.0;99.27453;1;0.590648559751191;1;0.590648559751191
723.65399;25.5;99.27007;1;0.5942797127643923;1;0.5942797127643923
733.54303;26.0;99.26565;1;0.5978782993828691;1;0.5978782993828691
743.409;26.5;99.2612;1;0.6015013107973834;1;0.6015013107973834
753.26801;27.0;99.25693;1;0.6049777734355913;1;0.6049777734355913
763.11902;27.5;99.25263;1;0.6084786608698485;1;0.6084786608698485
772.995;28.0;99.24833;1;0.6119795483041055;1;0.6119795483041055
782.85699;28.5;99.24437;1;0.6152036213830889;1;0.6152036213830889
792.724;29.0;99.24031;1;0.6185091104489299;1;0.6185091104489299
802.60797;29.5;99.23605;1;0.6219774314884393;1;0.6219774314884393
812.51898;30.0;99.23232;1;0.6250142477976934;1;0.6250142477976934
822.422;30.5;99.22881;1;0.6278719489358935;1;0.6278719489358935
832.34601;31.0;99.22525;1;0.6307703580675049;1;0.6307703580675049
842.28699;31.5;99.22188;1;0.6335140768241232;1;0.6335140768241232
852.23102;32.0;99.21832;1;0.6364124859557346;1;0.6364124859557346
862.19897;32.5;99.21504;1;0.6390829303241938;1;0.6390829303241938
872.20001;33.0;99.21156;1;0.6419162066663332;1;0.6419162066663332
882.16498;33.5;99.20795;1;0.6448553237913792;1;0.6448553237913792
892.15002;34.0;99.20408;1;0.6480061224822037;1;0.6480061224822037
902.15399;34.5;99.1999;1;0.6514093107322526;1;0.6514093107322526
912.15302;35.0;99.19501;1;0.6553905524888866;1;0.6553905524888866
922.177;35.5;99.18961;1;0.6597870157784136;1;0.6597870157784136
932.21698;36.0;99.18378;1;0.6645335678113733;1;0.6645335678113733
942.284;36.5;99.17757;1;0.6695895005943311;1;0.6695895005943311
952.354;37.0;99.17072;1;0.6751664956930887;1;0.6751664956930887
962.37299;37.5;99.16321;1;0.6812808363050082;1;0.6812808363050082
972.34198;38.0;99.15535;1;0.6876801328708884;1;0.6876801328708884
982.245;38.5;99.14736;1;0.694185270219652;1;0.694185270219652
992.16901;39.0;99.13962;1;0.7004868676013241;1;0.7004868676013241
1002.13702;39.5;99.13219;1;0.7065360754237715;1;0.7065360754237715
1012.159;40.0;99.12527;1;0.7121700617133142;1;0.7121700617133142
1022.20203;40.5;99.11959;1;0.7167944897660051;1;0.7167944897660051
1032.27405;41.0;99.11494;1;0.7205803331542112;1;0.7205803331542112
1042.34302;41.5;99.11115;1;0.7236659990555752;1;0.7236659990555752
1052.40796;42.0;99.10844;1;0.7258723722990198;1;0.7258723722990198
1062.43604;42.5;99.10633;1;0.7275902496214123;1;0.7275902496214123
1072.47705;43.0;99.10512;1;0.728575383062215;1;0.728575383062215
1082.50098;43.5;99.10438;1;0.7291778613648491;1;0.7291778613648491
1092.54199;44.0;99.10391;1;0.7295605165030178;1;0.7295605165030178
1102.56799;44.5;99.10391;1;0.7295605165030178;1;0.7295605165030178
1112.60706;45.0;99.10383;1;0.7296256492924899;1;0.7296256492924899
1122.64099;45.5;99.10344;1;0.729943171641175;1;0.729943171641175
1132.66296;46.0;99.10282;1;0.7304479507596124;1;0.7304479507596124
1142.69702;46.5;99.10196;1;0.7311481282464546;1;0.7311481282464546
1152.71204;47.0;99.10098;1;0.7319460049175164;1;0.7319460049175164
1162.73096;47.5;99.09973;1;0.7329637047530668;1;0.7329637047530668
1172.74902;48.0;99.09817;1;0.7342337941478185;1;0.7342337941478185
1182.77295;48.5;99.09655;1;0.7355527331346801;1;0.7355527331346801
1192.80505;49.0;99.09456;1;0.7371729112728529;1;0.7371729112728529
1202.83801;49.5;99.09241;1;0.7389233549899815;1;0.7389233549899815
1212.88696;50.0;99.0903;1;0.740641232312374;1;0.740641232312374
1222.93896;50.5;99.0876;1;0.7428394639571433;1;0.7428394639571433
1232.95801;51.0;99.08454;1;0.745330793154537;1;0.745330793154537
1242.99597;51.5;99.08111;1;0.748123361503265;1;0.748123361503265
1253.00806;52.0;99.07696;1;0.7515021249572532;1;0.7515021249572532
1263.01404;52.5;99.07179;1;0.7557113314770509;1;0.7557113314770509
1272.98303;53.0;99.06472;1;0.7614674417468625;1;0.7614674417468625
1282.95398;53.5;99.05482;1;0.7695276244443269;1;0.7695276244443269
1292.90698;54.0;99.03765;1;0.7835067493853061;1;0.7835067493853061
1302.82605;54.5;99.00784;1;0.807776855063255;1;0.807776855063255
1312.69702;55.0;98.95168;1;0.8535000732743873;1;0.8535000732743873
1322.53101;55.5;98.87313;1;0.9174523309396962;1;0.9174523309396962
1331.61499;56.0;98.77174;2;1.0;1;1.0
