##Temp./Â°C;Time/min;Mass/%;Segment;Alpha;F_alpha;G_alpha
118.166;0.0;100.0;1;0.0;1;0.0
134.229;0.5;99.97274;1;0.007023166659795926;1;0.007023166659795926
151.42799;1.0;99.9547;1;0.01167092625417306;1;0.01167092625417306
169.412;1.5;99.9432;1;0.014633744177417545;1;0.014633744177417545
187.968;2.0;99.9347;1;0.016823653077206787;1;0.016823653077206787
206.808;2.5;99.92683;1;0.018851251082073833;1;0.018851251082073833
225.61501;3.0;99.91928;1;0.020796405457768122;1;0.020796405457768122
244.186;3.5;99.91132;1;0.0228471907333352;1;0.0228471907333352
262.311;4.0;99.90295;1;0.025003606908775074;1;0.025003606908775074
279.87201;4.5;99.8937;1;0.027386743064430872;1;0.027386743064430872
296.681;5.0;99.88492;1;0.02964879013974353;1;0.02964879013974353
312.69;5.5;99.87647;1;0.03182581722247476;1;0.03182581722247476
327.84;6.0;99.86868;1;0.03383280432004679;1;0.03383280432004679
342.138;6.5;99.86244;1;0.03544045508883135;1;0.03544045508883135
355.58301;7.0;99.85689;1;0.03687033678222336;1;0.03687033678222336
368.203;7.5;99.85113;1;0.038354322107259774;1;0.038354322107259774
380.08899;8.0;99.84481;1;0.039982583783339354;1;0.039982583783339354
391.289;8.5;99.83831;1;0.041657220000822656;1;0.041657220000822656
401.94601;9.0;99.83064;1;0.04363329073745765;1;0.04363329073745765
412.16;9.5;99.82265;1;0.045691805103261734;1;0.045691805103261734
422.02499;10.0;99.81371;1;0.04799507399315711;1;0.04799507399315711
431.66;10.5;99.80363;1;0.05059204831196716;1;0.05059204831196716
441.12201;11.0;99.7918;1;0.05363988622779308;1;0.05363988622779308
450.49301;11.5;99.77743;1;0.05734212045014343;1;0.05734212045014343
459.82001;12.0;99.75948;1;0.06196669277381687;1;0.06196669277381687
469.14099;12.5;99.73772;1;0.06757285955727879;1;0.06757285955727879
478.50201;13.0;99.71087;1;0.07449039531720193;1;0.07449039531720193
487.90302;13.5;99.67884;1;0.08274248732429364;1;0.08274248732429364
497.38;14.0;99.6404;1;0.09264602827816495;1;0.09264602827816495
506.93701;14.5;99.596;1;0.10408508182530107;1;0.10408508182530107
516.54401;15.0;99.54797;1;0.11645935529081829;1;0.11645935529081829
526.23102;15.5;99.48966;1;0.13148213034337763;1;0.13148213034337763
535.97803;16.0;99.43583;1;0.14535069458757693;1;0.14535069458757693
545.79999;16.5;99.38404;1;0.15869368069582462;1;0.15869368069582462
555.67603;17.0;99.33507;1;0.17131013232202447;1;0.17131013232202447
565.60199;17.5;99.29614;1;0.18133991508306357;1;0.18133991508306357
575.57599;18.0;99.25921;1;0.19085442516179676;1;0.19085442516179676
585.57397;18.5;99.22747;1;0.19903180262995274;1;0.19903180262995274
595.55798;19.0;99.19996;1;0.20611937837503508;1;0.20611937837503508
605.505;19.5;99.17572;1;0.21236448328455473;1;0.21236448328455473
615.367;20.0;99.15364;1;0.21805309369718576;1;0.21805309369718576
625.17603;20.5;99.13299;1;0.22337328414196636;1;0.22337328414196636
634.90802;21.0;99.11255;1;0.2286393709551099;1;0.2286393709551099
644.61102;21.5;99.09268;1;0.23375860505379423;1;0.23375860505379423
654.31097;22.0;99.07259;1;0.23893451914753167;1;0.23893451914753167
664.09497;22.5;99.05159;1;0.24434488231171836;1;0.24434488231171836
673.99298;23.0;99.02971;1;0.24998196545612097;1;0.24998196545612097
683.909;23.5;99.00677;1;0.2558921431221396;1;0.2558921431221396
693.83698;24.0;98.98266;1;0.2621037553073099;1;0.2621037553073099
703.74799;24.5;98.95776;1;0.26851890020198876;1;0.26851890020198876
713.63098;25.0;98.93169;1;0.275235479615812;1;0.275235479615812
723.52301;25.5;98.90492;1;0.2821324044684438;1;0.2821324044684438
733.39301;26.0;98.87778;1;0.2891246547673027;1;0.2891246547673027
743.22302;26.5;98.84991;1;0.29630497959520347;1;0.29630497959520347
753.08197;27.0;98.822;1;0.30349560987674623;1;0.30349560987674623
762.909;27.5;98.79367;1;0.31079444742157414;1;0.31079444742157414
772.74799;28.0;98.76568;1;0.31800568861041195;1;0.31800568861041195
782.58698;28.5;98.73777;1;0.32519631889195844;1;0.32519631889195844
792.45697;29.0;98.70974;1;0.3324178655344419;1;0.3324178655344419
802.32098;29.5;98.68186;1;0.33960076672575135;1;0.33960076672575135
812.21503;30.0;98.65465;1;0.34661105156848926;1;0.34661105156848926
822.12402;30.5;98.62787;1;0.3535105527845334;1;0.3535105527845334
832.05603;31.0;98.60147;1;0.36031215219093804;1;0.36031215219093804
842.026;31.5;98.57622;1;0.3668174698050194;1;0.3668174698050194
852.03003;32.0;98.55067;1;0.3734000783214488;1;0.3734000783214488
862.05402;32.5;98.52524;1;0.3799517704769375;1;0.3799517704769375
872.06403;33.0;98.4997;1;0.3865318026299509;1;0.3865318026299509
882.04999;33.5;98.47362;1;0.39325095840719015;1;0.39325095840719015
892.00897;34.0;98.4475;1;0.3999804196380714;1;0.3999804196380714
901.96899;34.5;98.41971;1;0.4071401335586808;1;0.4071401335586808
911.97498;35.0;98.39034;1;0.41470691289830736;1;0.41470691289830736
922.00403;35.5;98.36026;1;0.42245661404015117;1;0.42245661404015117
932.03601;36.0;98.32732;1;0.43094315511768844;1;0.43094315511768844
942.09998;36.5;98.29276;1;0.4398470670678923;1;0.4398470670678923
952.14398;37.0;98.25559;1;0.4494234098685032;1;0.4494234098685032
962.14899;37.5;98.21572;1;0.45969537079022127;1;0.45969537079022127
972.14203;38.0;98.17409;1;0.47042077167236757;1;0.47042077167236757
982.12097;38.5;98.12908;1;0.4820169833876085;1;0.4820169833876085
992.125;39.0;98.08109;1;0.4943809513994801;1;0.4943809513994801
1002.15503;39.5;98.02881;1;0.5078501793148955;1;0.5078501793148955
1012.20599;40.0;97.97445;1;0.521855290819901;1;0.521855290819901
1022.258;40.5;97.91381;1;0.537478358547344;1;0.537478358547344
1032.31604;41.0;97.84811;1;0.5544050661610113;1;0.5544050661610113
1042.35498;41.5;97.7796;1;0.5720557318933177;1;0.5720557318933177
1052.39502;42.0;97.7097;1;0.5900645121398252;1;0.5900645121398252
1062.43298;42.5;97.63898;1;0.6082845541860746;1;0.6082845541860746
1072.46997;43.0;97.56879;1;0.6263680489715143;1;0.6263680489715143
1082.52405;43.5;97.49991;1;0.6441140401500478;1;0.6441140401500478
1092.56799;44.0;97.42902;1;0.6623778803742959;1;0.6623778803742959
1102.61804;44.5;97.35536;1;0.6813553732635302;1;0.6813553732635302
1112.66895;45.0;97.27779;1;0.7013402242466727;1;0.7013402242466727
1122.68201;45.5;97.19462;1;0.7227678387402616;1;0.7227678387402616
1132.72095;46.0;97.10517;1;0.7458134094562844;1;0.7458134094562844
1142.74304;46.5;97.01139;1;0.7699745455294932;1;0.7699745455294932
1152.77405;47.0;96.91485;1;0.794846757904283;1;0.794846757904283
1162.81299;47.5;96.82168;1;0.8188507358093906;1;0.8188507358093906
1172.88599;48.0;96.73741;1;0.8405617502782485;1;0.8405617502782485
1182.99902;48.5;96.67211;1;0.8573854033554553;1;0.8573854033554553
1193.104;49.0;96.62882;1;0.8685384805639137;1;0.8685384805639137
1203.18103;49.5;96.6032;1;0.8751391236242222;1;0.8751391236242222
1213.18103;50.0;96.59025;1;0.8784755142421381;1;0.8784755142421381
1223.12195;50.5;96.58308;1;0.8803227668081965;1;0.8803227668081965
1233.01794;51.0;96.57744;1;0.8817758357722923;1;0.8817758357722923
1242.94104;51.5;96.5732;1;0.8828682138587746;1;0.8828682138587746
1252.90698;52.0;96.56978;1;0.8837493301455149;1;0.8837493301455149
1262.90002;52.5;96.56614;1;0.8846871264273047;1;0.8846871264273047
1272.87903;53.0;96.55749;1;0.886915680778268;1;0.886915680778268
1282.828;53.5;96.53921;1;0.8916252730945229;1;0.8916252730945229
1292.73096;54.0;96.50611;1;0.9001530359866429;1;0.9001530359866429
1302.61694;54.5;96.44478;1;0.9159538727894821;1;0.9159538727894821
1312.51294;55.0;96.36055;1;0.9376545818046906;1;0.9376545818046906
1322.40698;55.5;96.24984;1;0.9661775011335989;1;0.9661775011335989
1331.49304;56.0;96.11856;2;1.0;1;1.0
