##Temp./Â°C;Time/min;Mass/%;Segment;Alpha;F_alpha;G_alpha
118.782;0.0;100.0;1;0.0;inf;0.0
129.61099;0.25;99.99258;1;0.005757248935061195;86.84703504047553;3.314591530026326e-05
141.129;0.5;99.98593;1;0.010917047508945324;45.79992892678215;0.00011918192631256932
153.289;0.75;99.98035;1;0.015246622853639128;32.794147582699466;0.00023245950844111093
166.007;1.0;99.97545;1;0.01904857969755433;26.248676171074088;0.000362848388494079
179.242;1.25;99.97093;1;0.02255569090867111;22.167354661159344;0.0005087591923675085
192.946;1.5;99.96651;1;0.025985211163787148;19.241713944460738;0.0006752311992266083
207.041;1.75;99.96176;1;0.029670781573701233;16.85159518828369;0.0008803552791942885
221.457;2.0;99.95663;1;0.033651197616402714;14.85831219737283;0.0011324031010181877
236.08299;2.25;99.95093;1;0.038073882108301815;13.132361931933849;0.0014496204987968651
250.89101;2.5;99.94494;1;0.04272158037258986;11.703686887032852;0.0018251334295316549
265.806;2.75;99.9386;1;0.04764084698288049;10.495195439738353;0.0022696503012462335
280.711;3.0;99.93169;1;0.05300238204234671;9.433538281364802;0.002809252502162877
295.526;3.25;99.9248;1;0.058348398910619395;8.569215425532441;0.0034045356554327708
310.22198;3.5;99.91794;1;0.06367113849209627;7.852851572020607;0.004054013876879703
324.71701;3.75;99.91129;1;0.0688309370659804;7.264175402998028;0.004737697897380954
338.905;4.0;99.90537;1;0.0734243216610635;6.809732642925419;0.005391131011387319
352.73001;4.25;99.90006;1;0.07754440142457293;6.447918751250502;0.006013134192295309
366.133;4.5;99.89501;1;0.08146274470247823;6.137775026192914;0.006636178774461145
379.08401;4.75;99.89017;1;0.08521814697279077;5.8672949103158105;0.0072621325734761695
391.534;5.0;99.88467;1;0.0894856495526884;5.58748807769009;0.00800768147586656
403.48001;5.25;99.87901;1;0.09387729766218941;5.326101330688208;0.008812947016355314
414.897;5.5;99.87305;1;0.09850171863967061;5.076053564395676;0.009702588574968833
425.811;5.75;99.86641;1;0.10365375811795245;4.823751777827743;0.010744101571974994
436.20999;6.0;99.85895;1;0.10944204343542277;4.568628146047267;0.011977560871320965
446.10101;6.25;99.85038;1;0.11609158836445944;4.3069442587889615;0.013477256888983095
455.53201;6.5;99.84051;1;0.12374981572148376;4.04041005705673;0.015314016891101189
464.54901;6.75;99.82889;1;0.13276588480846596;3.7660277014786026;0.017626780168974853
473.14999;7.0;99.81493;1;0.14359758226580827;3.481952774625886;0.020620265632585573
481.38901;7.25;99.79883;1;0.1560897261815202;3.203285778197464;0.024364002619421954
489.30801;7.5;99.7802;1;0.17054492128398038;2.9317788898998187;0.029085570175759065
496.95099;7.75;99.7587;1;0.18722697682357817;2.6705553253212235;0.03505394085049668
504.354;8.0;99.72951;1;0.20987577687944356;2.382361639986729;0.04404784172074998
511.552;8.25;99.70556;1;0.22845881084100444;2.1885783181633305;0.05219342825088585
518.60303;8.5;99.67761;1;0.2501454830424959;1.9988368125562261;0.0625727626865636
525.52899;8.75;99.64744;1;0.2735546744671421;1.8277881778988108;0.07483215992282409
532.41498;9.0;99.61624;1;0.29776305273856957;1.6791875130289946;0.08866283557619216
539.242;9.25;99.58359;1;0.3230964998719747;1.547525275569752;0.10439134822952094
546.04999;9.5;99.55066;1;0.3486472016821775;1.4341144790136415;0.12155487124081295
552.91699;9.75;99.51796;1;0.37401944429357203;1.3368288938677328;0.13989054470967244
559.81097;10.0;99.48571;1;0.3990425276029852;1.2529992805615426;0.15923493883577922
566.76001;10.25;99.45584;1;0.42221894615964023;1.1842197147897549;0.17826883849615718
573.81702;10.5;99.43035;1;0.44199688084356625;1.1312297024488789;0.1953612426754417
580.95203;10.75;99.40402;1;0.46242657955788535;1.081252726601567;0.21383834148160527
588.20599;11.0;99.38426;1;0.4777585524631275;1.0465537402150202;0.22825323445166293
595.56201;11.25;99.36657;1;0.49148439257920495;1.0173263028274548;0.24155690814895006
602.99298;11.5;99.35179;1;0.5029523358757357;0.9941299887382069;0.2529610521628589
610.53101;11.75;99.3396;1;0.5124106734119045;0.9757798304058196;0.26256469822644146
618.13702;12.0;99.32953;1;0.5202240826809194;0.961124285948669;0.270633096201204
625.77301;12.25;99.32101;1;0.5268348321319667;0.9490640510169517;0.27755494034751754
633.47803;12.5;99.31366;1;0.5325377673978339;0.9389005449194245;0.2835964737050694
641.17999;12.75;99.30743;1;0.5373716839565216;0.9304546832811063;0.2887683267182677
648.89398;13.0;99.30208;1;0.541522800102418;0.923322157267312;0.29324694303076343
656.60797;13.25;99.29736;1;0.5451850932255363;0.9171197199134646;0.29722678587533674
664.32202;13.5;99.29303;1;0.5485447816202539;0.9115026097288436;0.30090137744281203
672.11798;13.75;99.28895;1;0.5517104926249806;0.9062724140355796;0.30438446767249877
679.88397;14.0;99.28495;1;0.5548141308649112;0.9012027130969785;0.3078187198073868
687.646;14.25;99.28115;1;0.5577625871928402;0.8964387563469376;0.3110991036720507
695.34998;14.5;99.27775;1;0.5604006796967773;0.8922187608168872;0.31404892180461
703.00702;14.75;99.27413;1;0.5632094723039095;0.8877691597668984;0.3172049096928482
710.60199;15.0;99.27054;1;0.5659949876242458;0.88340004935157;0.3203503260157702
718.14001;15.25;99.26704;1;0.5687106710841836;0.8791816743069119;0.32343182740502247
725.58698;15.5;99.26361;1;0.5713720408749166;0.875086570974618;0.3264660090935673
732.97998;15.75;99.26033;1;0.5739170242316594;0.8712060783863016;0.32938075070292305
740.302;16.0;99.25705;1;0.5764620075883912;0.8673598492496195;0.33230844619283834
747.57898;16.25;99.2535;1;0.5792164865263294;0.8632350971198944;0.33549173826390555
754.82001;16.5;99.24999;1;0.5819399290818695;0.8591952107305187;0.3386540810598113
762.01898;16.75;99.2466;1;0.5845702624902044;0.855329174409344;0.34172239178786645
769.203;17.0;99.24339;1;0.5870609321777424;0.8517003476031288;0.3446405380893998
776.36798;17.25;99.24019;1;0.589543842769689;0.8481133441255019;0.34756194254765177
783.52197;17.5;99.2371;1;0.5919414033100325;0.8446782015991577;0.3503946249526506
790.67499;17.75;99.234;1;0.5943467229459785;0.8412597911227083;0.35324802707662367
797.85699;18.0;99.23075;1;0.5968684290159145;0.8377055573610651;0.3562519215559258
805.047;18.25;99.22751;1;0.5993823759902592;0.8341920283757653;0.35925923264772847
812.27698;18.5;99.22438;1;0.6018109729130009;0.8308256620509994;0.3621764471184927
819.521;18.75;99.22125;1;0.6042395698357427;0.8274863563402852;0.36510545775528336
826.80103;19.0;99.21805;1;0.6067224804276783;0.8241000063942749;0.3681121682563145
834.12701;19.25;99.21496;1;0.6091200409680219;0.8208562621012981;0.37102722430888463
841.487;19.5;99.21193;1;0.6114710469347738;0.8177002042965665;0.3738968412395084
848.85303;19.75;99.20896;1;0.6137754983279122;0.8146301072006508;0.376720362347677
856.24298;20.0;99.2062;1;0.6159170087134688;0.8117976820357714;0.3793537616225472
863.66803;20.25;99.20323;1;0.6182214601066072;0.8087716655998631;0.3821977737363453
871.10101;20.5;99.2007;1;0.6201845112933664;0.806211685224568;0.3846288280481917
878.534;20.75;99.19836;1;0.6220001396637265;0.8038583404021682;0.38688417374169526
885.98798;21.0;99.19569;1;0.6240718181888736;0.8011898397384072;0.3894656342575665
893.46198;21.25;99.19296;1;0.6261900512876234;0.7984796292624882;0.3921139803315964
900.93701;21.5;99.1904;1;0.6281763797611785;0.7959547924901142;0.3946055640898603
908.41302;21.75;99.18727;1;0.6306049766839202;0.7928893974628689;0.3976626366185276
915.90503;22.0;99.18407;1;0.6330878872758559;0.789779760518676;0.40080027301540677
923.39099;22.25;99.18075;1;0.6356639070149968;0.7865791882819672;0.40406860268157047
930.88397;22.5;99.17694;1;0.6386201224385281;0.7829380604087193;0.40783566078340056
938.39301;22.75;99.17309;1;0.6416073742444576;0.7792927888161958;0.41166002268486745
945.88599;23.0;99.1689;1;0.6448584353007873;0.7753639754542101;0.41584240157857977
953.396;23.25;99.16453;1;0.648249160077903;0.7713083653512374;0.42022697354170674
960.88;23.5;99.15978;1;0.651934730487817;0.7669479422056097;0.4250188928162226
968.32599;23.75;99.15476;1;0.6558297964789265;0.762392929818745;0.4301127219495901
975.74298;24.0;99.14982;1;0.6596627897052287;0.757963019595854;0.43515499612168485
983.11298;24.25;99.14473;1;0.6636121693655432;0.7534521262291389;0.44038111133004243
990.474;24.5;99.1396;1;0.6675925854082447;0.7489597861459787;0.44567986009206456
997.83099;24.75;99.13462;1;0.6714566150169561;0.7446497492431043;0.4508539858500288
1005.203;25.0;99.12968;1;0.6752896082432693;0.7404230627814989;0.4560160550013482
1012.59399;25.25;99.12508;1;0.6788587922191823;0.7365301970465834;0.46084925977328695
1020.00201;25.5;99.12093;1;0.682078816893103;0.7330531129489118;0.46523151245429517
1027.448;25.75;99.11696;1;0.6851591778462267;0.7297574288820476;0.46944309898691733
1034.89404;26.0;99.11361;1;0.6877584748721745;0.7269994020690608;0.4730117197584994
1042.36096;26.25;99.11082;1;0.6899232625445159;0.7247182797633795;0.47599410820006893
1049.84204;26.5;99.10882;1;0.6914750816644867;0.7230918557418197;0.4781377885629085
1057.34302;26.75;99.1069;1;0.6929648280196502;0.7215373418430143;0.4802002528723034
1064.86401;27.0;99.10539;1;0.6941364514552195;0.7203194688188137;0.4818254132388443
1072.39905;27.25;99.10437;1;0.6949278792063984;0.7194991235219914;0.4829247572983027
1079.93799;27.5;99.10366;1;0.6954787749939839;0.718929200972848;0.4836907264671325
1087.48401;27.75;99.10336;1;0.6957115478619862;0.7186886598857907;0.4840145578285207
1095.01904;28.0;99.1029;1;0.6960684662595698;0.7183201426819784;0.4845113097209498
1102.57898;28.25;99.10275;1;0.6961848526935709;0.718200055725828;0.484673349119969
1110.13196;28.5;99.10264;1;0.6962702027451738;0.7181120174734718;0.48479219523080547
1117.67603;28.75;99.10241;1;0.6964486619439602;0.7179280072193356;0.4850407387235325
1125.18994;29.0;99.10238;1;0.696471939230767;0.7179040128339348;0.4850731621358652
1132.70105;29.25;99.10208;1;0.6967047120987582;0.7176641571632213;0.4853974558606135
1140.20703;29.5;99.10158;1;0.6970926668787509;0.7172647536786779;0.4859381862161292
1147.70898;29.75;99.10106;1;0.6974961398499371;0.7168498453734419;0.486500865105563
1155.18103;30.0;99.10027;1;0.6981091084023298;0.7162204216820549;0.4873563272342958
1162.64905;30.25;99.09944;1;0.6987531133371095;0.7155603180243403;0.48825591339830343
1170.12097;30.5;99.09853;1;0.6994591910366964;0.7148379868437071;0.48924315992570977
1177.59399;30.75;99.09735;1;0.7003747643174677;0.7139035063424397;0.49052481049274843
1185.05505;31.0;99.09611;1;0.7013368921718527;0.7129241389992101;0.49187343632127295
1192.52295;31.25;99.0949;1;0.7022757427394308;0.7119710529223244;0.4931912188402192
1199.99695;31.5;99.09336;1;0.703470643461796;0.7107617135798133;0.4948709462125533
1207.48206;31.75;99.09185;1;0.7046422668973764;0.7095799152122386;0.49652072429827343
1214.97803;32.0;99.08989;1;0.706163049634938;0.7080517739613857;0.498666252669716
1222.48401;32.25;99.08736;1;0.7081261008216863;0.7060889288218813;0.5014425746649249
1229.98706;32.5;99.0854;1;0.709646883559248;0.704575770828782;0.5035986993453528
1237.51697;32.75;99.08258;1;0.7118349485184072;0.7024100194022302;0.5067089939322035
1245.047;33.0;99.07945;1;0.7142635454411489;0.7000217261419749;0.5101724123461602
1252.57202;33.25;99.07612;1;0.7168473242758812;0.6974985928908528;0.5138700863214903
1260.11206;33.5;99.07224;1;0.7198578533686174;0.6945815728205512;0.5181953290564739
1267.62598;33.75;99.06749;1;0.7235434237785204;0.691043527683353;0.5235150860931436
1275.16101;34.0;99.06153;1;0.7281678447560127;0.6866548744232658;0.5302284101366166
1282.646;34.25;99.05312;1;0.734693244155457;0.6805561422778005;0.53977416300767
1290.13599;34.5;99.0409;1;0.7441748589784437;0.6718851006151544;0.5537962207355865
1297.59998;34.75;99.02363;1;0.7575748170793246;0.6600008193615096;0.5739196034727722
1305.01599;35.0;98.99319;1;0.7811935040851662;0.6400462848005066;0.6102632908248605
1312.41394;35.25;98.95841;1;0.8081796385813277;0.6186743344310136;0.6531543282174455
1319.77405;35.5;98.91372;1;0.8428550368169115;0.5932218212615511;0.7104046130876374
1327.12305;35.75;98.8579;1;0.8861663084550873;0.56422817616671;0.7852907262409169
1333.45179;36.0;98.79554;2;0.934552028615544;0.5350156916792591;0.8733874941894285
1336.65409;36.25;98.71119;2;1.0;0.5;1.0
