##Temp./Â°C;Time/min;Mass/%;Segment;Alpha;F_alpha;G_alpha
118.782;0.0;100.0;1;0.0;1.0;-0.0
129.61099;0.25;99.99258;1;0.005757248935061195;0.9942427510649388;0.005773885778407296
141.129;0.5;99.98593;1;0.010917047508945324;0.9890829524910547;0.010977075759400405
153.289;0.75;99.98035;1;0.015246622853639128;0.9847533771463609;0.015364047691599018
166.007;1.0;99.97545;1;0.01904857969755433;0.9809514203024456;0.01923234123169923
179.242;1.25;99.97093;1;0.02255569090867111;0.9774443090913288;0.02281396154222217
192.946;1.5;99.96651;1;0.025985211163787148;0.9740147888362128;0.026328791844797007
207.041;1.75;99.96176;1;0.029670781573701233;0.9703292184262988;0.030119864628525554
221.457;2.0;99.95663;1;0.033651197616402714;0.9663488023835973;0.03423043087093225
236.08299;2.25;99.95093;1;0.038073882108301815;0.9619261178916982;0.038817631794122356
250.89101;2.5;99.94494;1;0.04272158037258986;0.9572784196274101;0.04366100024077307
265.806;2.75;99.9386;1;0.04764084698288049;0.9523591530171195;0.0488130537634213
280.711;3.0;99.93169;1;0.05300238204234671;0.9469976179576532;0.05445870115544909
295.526;3.25;99.9248;1;0.058348398910619395;0.9416516010893806;0.060119923040823905
310.22198;3.5;99.91794;1;0.06367113849209627;0.9363288615079037;0.06578851644786293
324.71701;3.75;99.91129;1;0.0688309370659804;0.9311690629340196;0.07131442535107589
338.905;4.0;99.90537;1;0.0734243216610635;0.9265756783389365;0.07625955462927828
352.73001;4.25;99.90006;1;0.07754440142457293;0.922455598575427;0.08071603585137202
366.133;4.5;99.89501;1;0.08146274470247823;0.9185372552975217;0.08497281412882311
379.08401;4.75;99.89017;1;0.08521814697279077;0.9147818530272093;0.0890696541233937
391.534;5.0;99.88467;1;0.0894856495526884;0.9105143504473117;0.09374561887628254
403.48001;5.25;99.87901;1;0.09387729766218941;0.9061227023378106;0.09858054906544345
414.897;5.5;99.87305;1;0.09850171863967061;0.9014982813603294;0.10369714276284589
425.811;5.75;99.86641;1;0.10365375811795245;0.8963462418820476;0.10942850998038109
436.20999;6.0;99.85895;1;0.10944204343542277;0.8905579565645773;0.11590709519833811
446.10101;6.25;99.85038;1;0.11609158836445944;0.8839084116355406;0.12340182845916944
455.53201;6.5;99.84051;1;0.12374981572148376;0.8762501842785162;0.1321036303297745
464.54901;6.75;99.82889;1;0.13276588480846596;0.867234115191534;0.14244630959689966
473.14999;7.0;99.81493;1;0.14359758226580827;0.8564024177341918;0.15501489913398556
481.38901;7.25;99.79883;1;0.1560897261815202;0.8439102738184798;0.1697091006791683
489.30801;7.5;99.7802;1;0.17054492128398038;0.8294550787160196;0.18698632547023042
496.95099;7.75;99.7587;1;0.18722697682357817;0.8127730231764219;0.20730339269835796
504.354;8.0;99.72951;1;0.20987577687944356;0.7901242231205564;0.23556510142628304
511.552;8.25;99.70556;1;0.22845881084100444;0.7715411891589956;0.25936522019314984
518.60303;8.5;99.67761;1;0.2501454830424959;0.7498545169575042;0.2878760686578226
525.52899;8.75;99.64744;1;0.2735546744671421;0.7264453255328579;0.3195920561570344
532.41498;9.0;99.61624;1;0.29776305273856957;0.7022369472614305;0.3534844001958998
539.242;9.25;99.58359;1;0.3230964998719747;0.6769035001280252;0.39022655666099215
546.04999;9.5;99.55066;1;0.3486472016821775;0.6513527983178224;0.42870385066628885
552.91699;9.75;99.51796;1;0.37401944429357203;0.625980555706428;0.468435969536287
559.81097;10.0;99.48571;1;0.3990425276029852;0.6009574723970148;0.5092311083532732
566.76001;10.25;99.45584;1;0.42221894615964023;0.5777810538403598;0.5485602816565976
573.81702;10.5;99.43035;1;0.44199688084356625;0.5580031191564337;0.5833907267303675
580.95203;10.75;99.40402;1;0.46242657955788535;0.5375734204421146;0.6206899321373507
588.20599;11.0;99.38426;1;0.4777585524631275;0.5222414475368725;0.649625254865532
595.56201;11.25;99.36657;1;0.49148439257920495;0.508515607420795;0.6762593709049675
602.99298;11.5;99.35179;1;0.5029523358757357;0.49704766412426427;0.6990693538134195
610.53101;11.75;99.3396;1;0.5124106734119045;0.4875893265880955;0.7182817713026766
618.13702;12.0;99.32953;1;0.5202240826809194;0.47977591731908065;0.7344361230019963
625.77301;12.25;99.32101;1;0.5268348321319667;0.4731651678680333;0.7483107593335727
633.47803;12.5;99.31366;1;0.5325377673978339;0.46746223260216613;0.7604367193944697
641.17999;12.75;99.30743;1;0.5373716839565216;0.4626283160434784;0.7708313204150357
648.89398;13.0;99.30208;1;0.541522800102418;0.45847719989758196;0.7798447161173164
656.60797;13.25;99.29736;1;0.5451850932255363;0.4548149067744637;0.7878647410939428
664.32202;13.5;99.29303;1;0.5485447816202539;0.4514552183797461;0.7952790951421801
672.11798;13.75;99.28895;1;0.5517104926249806;0.4482895073750194;0.802316033459321
679.88397;14.0;99.28495;1;0.5548141308649112;0.44518586913508884;0.8092634005717091
687.646;14.25;99.28115;1;0.5577625871928402;0.4422374128071598;0.815908408060886
695.34998;14.5;99.27775;1;0.5604006796967773;0.4395993203032227;0.821891602624879
703.00702;14.75;99.27413;1;0.5632094723039095;0.4367905276960905;0.8283015404640279
710.60199;15.0;99.27054;1;0.5659949876242458;0.4340050123757542;0.8346991956955345
718.14001;15.25;99.26704;1;0.5687106710841836;0.4312893289158164;0.8409761173088544
725.58698;15.5;99.26361;1;0.5713720408749166;0.42862795912508345;0.8471659644606591
732.97998;15.75;99.26033;1;0.5739170242316594;0.42608297576834064;0.8531211728807723
740.302;16.0;99.25705;1;0.5764620075883912;0.42353799241160883;0.8591120583786915
747.57898;16.25;99.2535;1;0.5792164865263294;0.4207835134736706;0.8656367973335911
754.82001;16.5;99.24999;1;0.5819399290818695;0.41806007091813047;0.8721301464522654
762.01898;16.75;99.2466;1;0.5845702624902044;0.4154297375097956;0.8784417824524333
769.203;17.0;99.24339;1;0.5870609321777424;0.41293906782225764;0.8844552324448703
776.36798;17.25;99.24019;1;0.589543842769689;0.41045615723031104;0.8904861591301724
783.52197;17.5;99.2371;1;0.5919414033100325;0.40805859668996747;0.8963444955520896
790.67499;17.75;99.234;1;0.5943467229459785;0.40565327705402154;0.9022564816478182
797.85699;18.0;99.23075;1;0.5968684290159145;0.4031315709840855;0.9084922914493847
805.047;18.25;99.22751;1;0.5993823759902592;0.40061762400974077;0.9147478626848263
812.27698;18.5;99.22438;1;0.6018109729130009;0.3981890270869991;0.9208284440175108
819.521;18.75;99.22125;1;0.6042395698357427;0.3957604301642573;0.9269462251311508
826.80103;19.0;99.21805;1;0.6067224804276783;0.3932775195723217;0.93323975965161
834.12701;19.25;99.21496;1;0.6091200409680219;0.39087995903197814;0.9393547762824284
841.487;19.5;99.21193;1;0.6114710469347738;0.38852895306522617;0.945387586686887
848.85303;19.75;99.20896;1;0.6137754983279122;0.38622450167208777;0.9513364680377195
856.24298;20.0;99.2062;1;0.6159170087134688;0.38408299128653123;0.9568966266036436
863.66803;20.25;99.20323;1;0.6182214601066072;0.38177853989339283;0.9629145769878747
871.10101;20.5;99.2007;1;0.6201845112933664;0.3798154887066336;0.9680697002173848
878.534;20.75;99.19836;1;0.6220001396637265;0.37799986033627353;0.9728614528433754
885.98798;21.0;99.19569;1;0.6240718181888736;0.3759281818111264;0.9783571596576499
893.46198;21.25;99.19296;1;0.6261900512876234;0.3738099487123766;0.984007769246961
900.93701;21.5;99.1904;1;0.6281763797611785;0.37182362023882154;0.9893356762914495
908.41302;21.75;99.18727;1;0.6306049766839202;0.36939502331607976;0.9958886836518765
915.90503;22.0;99.18407;1;0.6330878872758559;0.36691211272414415;1.0026329344723435
923.39099;22.25;99.18075;1;0.6356639070149968;0.36433609298500325;1.0096785049781407
930.88397;22.5;99.17694;1;0.6386201224385281;0.36137987756147194;1.0178255815067672
938.39301;22.75;99.17309;1;0.6416073742444576;0.3583926257555424;1.0261261735519054
945.88599;23.0;99.1689;1;0.6448584353007873;0.35514156469921265;1.0352387951952629
953.396;23.25;99.16453;1;0.648249160077903;0.351750839922097;1.0448321951522606
960.88;23.5;99.15978;1;0.651934730487817;0.348065269512183;1.055365260724612
968.32599;23.75;99.15476;1;0.6558297964789265;0.3441702035210735;1.0666189662933148
975.74298;24.0;99.14982;1;0.6596627897052287;0.34033721029477126;1.0778183578910006
983.11298;24.25;99.14473;1;0.6636121693655432;0.33638783063445676;1.089490526821702
990.474;24.5;99.1396;1;0.6675925854082447;0.33240741459175527;1.1013939100169068
997.83099;24.75;99.13462;1;0.6714566150169561;0.3285433849830439;1.1130863798143378
1005.203;25.0;99.12968;1;0.6752896082432693;0.32471039175673067;1.1248215962070467
1012.59399;25.25;99.12508;1;0.6788587922191823;0.3211412077808177;1.1358743529508815
1020.00201;25.5;99.12093;1;0.682078816893103;0.317921183106897;1.1459517787874136
1027.448;25.75;99.11696;1;0.6851591778462267;0.3148408221537733;1.1556880943729244
1034.89404;26.0;99.11361;1;0.6877584748721745;0.31224152512782555;1.1639782716487832
1042.36096;26.25;99.11082;1;0.6899232625445159;0.31007673745548414;1.170935471956979
1049.84204;26.5;99.10882;1;0.6914750816644867;0.3085249183355133;1.1759526663361803
1057.34302;26.75;99.1069;1;0.6929648280196502;0.3070351719803498;1.1807929712459673
1064.86401;27.0;99.10539;1;0.6941364514552195;0.3058635485447805;1.1846161962698503
1072.39905;27.25;99.10437;1;0.6949278792063984;0.3050721207936016;1.1872070687090017
1079.93799;27.5;99.10366;1;0.6954787749939839;0.3045212250060161;1.1890144898081731
1087.48401;27.75;99.10336;1;0.6957115478619862;0.3042884521380138;1.189779171737793
1095.01904;28.0;99.1029;1;0.6960684662595698;0.30393153374043025;1.1909528209003994
1102.57898;28.25;99.10275;1;0.6961848526935709;0.3038151473064291;1.1913358305952395
1110.13196;28.5;99.10264;1;0.6962702027451738;0.3037297972548262;1.1916167976345622
1117.67603;28.75;99.10241;1;0.6964486619439602;0.30355133805603984;1.192204529390241
1125.18994;29.0;99.10238;1;0.696471939230767;0.303528060769233;1.1922812155267275
1132.70105;29.25;99.10208;1;0.6967047120987582;0.30329528790124183;1.193048400507062
1140.20703;29.5;99.10158;1;0.6970926668787509;0.30290733312124907;1.1943283515316985
1147.70898;29.75;99.10106;1;0.6974961398499371;0.3025038601500629;1.1956612407660052
1155.18103;30.0;99.10027;1;0.6981091084023298;0.30189089159767024;1.1976896129872439
1162.64905;30.25;99.09944;1;0.6987531133371095;0.30124688666289046;1.1998251289596704
1170.12097;30.5;99.09853;1;0.6994591910366964;0.3005408089633036;1.2021717306888926
1177.59399;30.75;99.09735;1;0.7003747643174677;0.2996252356825323;1.2052227996362175
1185.05505;31.0;99.09611;1;0.7013368921718527;0.2986631078281473;1.2084390705002805
1192.52295;31.25;99.0949;1;0.7022757427394308;0.29772425726056917;1.211587532047558
1199.99695;31.5;99.09336;1;0.703470643461796;0.296529356538204;1.215609055198654
1207.48206;31.75;99.09185;1;0.7046422668973764;0.2953577331026236;1.2195680027288487
1214.97803;32.0;99.08989;1;0.706163049634938;0.29383695036506197;1.2247302560807292
1222.48401;32.25;99.08736;1;0.7081261008216863;0.29187389917831374;1.2314334221179035
1229.98706;32.5;99.0854;1;0.709646883559248;0.290353116440752;1.2366574538283552
1237.51697;32.75;99.08258;1;0.7118349485184072;0.28816505148159277;1.2442218675804602
1245.047;33.0;99.07945;1;0.7142635454411489;0.2857364545588511;1.2526853805494116
1252.57202;33.25;99.07612;1;0.7168473242758812;0.28315267572411884;1.2617690366201817
1260.11206;33.5;99.07224;1;0.7198578533686174;0.2801421466313826;1.2724581380912974
1267.62598;33.75;99.06749;1;0.7235434237785204;0.27645657622147957;1.2857015183766618
1275.16101;34.0;99.06153;1;0.7281678447560127;0.2718321552439873;1.3025704794649557
1282.646;34.25;99.05312;1;0.734693244155457;0.265306755844543;1.326868553237893
1290.13599;34.5;99.0409;1;0.7441748589784437;0.2558251410215563;1.36326111076719
1297.59998;34.75;99.02363;1;0.7575748170793246;0.24242518292067539;1.4170621402463837
1305.01599;35.0;98.99319;1;0.7811935040851662;0.2188064959148338;1.5195675200503636
1312.41394;35.25;98.95841;1;0.8081796385813277;0.1918203614186723;1.651195962528793
1319.77405;35.5;98.91372;1;0.8428550368169115;0.15714496318308846;1.8505865672665962
1327.12305;35.75;98.8579;1;0.8861663084550873;0.11383369154491274;2.1730167418369204
1333.45179;36.0;98.79554;2;0.934552028615544;0.06544797138445602;2.72649978199648
1336.65409;36.25;98.71119;2;1.0;0.0;inf
