##Temp./Â°C;Time/min;Mass/%;Segment;Alpha;F_alpha;G_alpha
120.524;0.0;100.0;1;0.0;1.0;-0.0
129.022;0.5;99.98645;1;0.004706838637064561;0.9952931613629354;0.004717950684161752
137.681;1.0;99.97589;1;0.008375046460489732;0.9916249535395103;0.008410314212853737
146.403;1.5;99.96781;1;0.011181781234476983;0.988818218765523;0.011244767321506506
155.10699;2.0;99.96158;1;0.013345884903032935;0.9866541150969671;0.013435741598561972
163.771;2.5;99.95623;1;0.015204304586300166;0.9847956954136998;0.01532107514734002
172.30701;3.0;99.9517;1;0.01677788237419112;0.9832221176258089;0.01692022543226627
180.67599;3.5;99.9474;1;0.01827156548410905;0.981728434515891;0.01844055213565054
188.91;4.0;99.94332;1;0.019688827597706036;0.9803111724022939;0.01988523485775057
196.935;4.5;99.93932;1;0.021078300258096302;0.9789216997419037;0.0213036194848076
204.716;5.0;99.93562;1;0.022363562468953966;0.977636437531046;0.022617418825848366
212.235;5.5;99.93204;1;0.023607140500001553;0.9763928594999984;0.023890253578972412
219.492;6.0;99.92868;1;0.024774297534728193;0.9752257024652718;0.02508634506592693
226.481;6.5;99.92521;1;0.025979665067612834;0.9740203349323872;0.026323097803548304
233.21201;7.0;99.92208;1;0.02706692742437139;0.9729330725756287;0.027439983770710864
239.69099;7.5;99.91891;1;0.02816808450772837;0.9718319154922717;0.028572415923480348
245.929;8.0;99.91563;1;0.02930745208924829;0.9706925479107517;0.029745495319538424
251.942;8.5;99.91261;1;0.030356503947838967;0.969643496052161;0.03082680488348727
257.746;9.0;99.90943;1;0.03146113471284802;0.9685388652871519;0.03196666757819107
263.35999;9.5;99.90616;1;0.032597028612715864;0.9674029713872841;0.0331401470791744
268.79001;10.0;99.90329;1;0.03359397524654518;0.9664060247534548;0.03417121759765952
274.069;10.5;99.90034;1;0.03461871133358121;0.9653812886664188;0.035232137892594106
279.207;11.0;99.89744;1;0.03562607901236181;0.9643739209876382;0.036276174737521046
284.24301;11.5;99.89465;1;0.0365952361929844;0.9634047638070156;0.03728164001205193
289.16501;12.0;99.89204;1;0.03750186710388941;0.9624981328961106;0.03822315267027601
294.017;12.5;99.88944;1;0.03840502433314234;0.9615949756668577;0.039161940186913914
298.806;13.0;99.88687;1;0.03929776051743905;0.960702239482561;0.04009076247458336
303.55099;13.5;99.8845;1;0.04012102306871897;0.959878976931281;0.04094806816378525
308.263;14.0;99.88212;1;0.040947759301650954;0.959052240698349;0.04180973144435346
312.94199;14.5;99.88023;1;0.04160428513368561;0.9583957148663144;0.04249452276375825
317.61401;15.0;99.87827;1;0.042285126737274914;0.9577148732627251;0.043205172385404
322.289;15.5;99.87631;1;0.04296596834086422;0.9570340316591358;0.04391632738910535
326.94501;16.0;99.87442;1;0.04362249417289888;0.9563775058271011;0.04460256330326885
331.62799;16.5;99.87261;1;0.044251230551726826;0.9557487694482731;0.04526019393113834
336.284;17.0;99.8708;1;0.044879966930549825;0.9551200330694501;0.04591825732165889
340.98999;17.5;99.86895;1;0.045522598035981125;0.9544774019640189;0.04659131135692411
345.69601;18.0;99.86695;1;0.04621733436617379;0.9537826656338262;0.047319447288377045
350.423;18.5;99.8648;1;0.04696417592113276;0.9530358240788672;0.0481027851856943
355.15201;19.0;99.86273;1;0.04768322802288501;0.952316771977115;0.04885755586423056
359.89301;19.5;99.86042;1;0.04848564848425741;0.9515143515157426;0.049700509316336
364.66699;20.0;99.8579;1;0.049361016260303626;0.9506389837396964;0.05062090602843867
369.46301;20.5;99.85521;1;0.05029543662441535;0.9497045633755846;0.05160432867413685
374.27399;21.0;99.85223;1;0.05133059375640267;0.9486694062435973;0.05269490118635039
379.12;21.5;99.84929;1;0.05235185616179156;0.9476481438382084;0.05377200191146819
384.005;22.0;99.84589;1;0.05353290792312156;0.9464670920768784;0.05501907694893108
388.923;22.5;99.84242;1;0.05473827545600621;0.9452617245439938;0.056293432644545345
393.88199;23.0;99.83804;1;0.056259748019130855;0.9437402519808692;0.057904307499140925
398.867;23.5;99.83431;1;0.057555431274944745;0.9424445687250552;0.05927817441333901
403.888;24.0;99.83004;1;0.05903869333991139;0.9409613066600886;0.06085325962572273
408.90601;24.5;99.82544;1;0.06063658689935699;0.939363413100643;0.06255285324090532
413.95499;25.0;99.8205;1;0.06235258563493855;0.9376474143650615;0.06438129150939807
419.01401;25.5;99.81499;1;0.06426658422462415;0.9357334157753758;0.06642465527703911
424.064;26.0;99.80902;1;0.06634037217025086;0.9336596278297491;0.06864333133706822
429.10199;26.5;99.80276;1;0.0685148968837581;0.9314851031162419;0.07097508142882193
434.12701;27.0;99.79559;1;0.07100552662750534;0.9289944733724946;0.0736524891929965
439.13699;27.5;99.78779;1;0.07371499831526414;0.9262850016847358;0.07657331449230437
444.103;28.0;99.77892;1;0.07679615393967638;0.9232038460603236;0.07990521722709718
449.07001;28.5;99.76903;1;0.08023162509248664;0.9197683749075134;0.08363340704240964
454.01999;29.0;99.75786;1;0.08411172749662416;0.9158882725033759;0.08786089499693817
458.953;29.5;99.74522;1;0.08850246110344871;0.9114975388965513;0.0926663849257027
463.862;30.0;99.73107;1;0.09341772063957354;0.9065822793604265;0.09807348692670288
468.759;30.5;99.71507;1;0.09897561128112967;0.9010243887188704;0.10422295323973332
473.66299;31.0;99.69711;1;0.10521434352627511;0.8947856564737249;0.11117107936307664
478.55301;31.5;99.67757;1;0.11200191747227052;0.8879980825277295;0.11878569530791826
483.439;32.0;99.65583;1;0.11955370138148527;0.8804462986185148;0.12732634254975572
488.332;32.5;99.63239;1;0.1276960111713601;0.8723039888286399;0.13661730478185
493.237;33.0;99.60673;1;0.13660947828775347;0.8633905217122465;0.1468881737849892
498.13901;33.5;99.579;1;0.14624199750589909;0.8537580024941009;0.1581074947951213
503.06;34.0;99.54994;1;0.1563365163836175;0.8436634836163825;0.17000157998891025
508.008;34.5;99.51893;1;0.16710840318328304;0.832891596816717;0.18285178115799128
512.95801;35.0;99.48671;1;0.17830060546271131;0.8216993945372887;0.19638065088682813
517.92798;35.5;99.45353;1;0.18982628118063502;0.810173718819365;0.21050658663232905
522.91699;36.0;99.41984;1;0.2015291146627602;0.7984708853372398;0.22505677368594046
527.93201;36.5;99.38693;1;0.2129610009761026;0.7870389990238974;0.23947747775958786
532.96002;37.0;99.3546;1;0.2241914137536938;0.7758085862463062;0.2538494564346461
538.013;37.5;99.32347;1;0.23500498473316941;0.7649950152668306;0.26788596116790153
543.05701;38.0;99.29445;1;0.24508560888428943;0.7549143911157106;0.2811509254128739
548.13202;38.5;99.26736;1;0.2544958124767714;0.7455041875232287;0.29369452772641447
553.20398;39.0;99.2423;1;0.26320085869410453;0.7367991413058954;0.305439959478886
558.28497;39.5;99.21947;1;0.2711312739032719;0.7288687260967281;0.31626163713012573
563.35303;40.0;99.198;1;0.2785892684079103;0.7214107315920897;0.3265466345600112
568.422;40.5;99.17831;1;0.28542894757867204;0.714571052421328;0.3360728429996055
573.46899;41.0;99.16024;1;0.29170589032197547;0.7082941096780245;0.3448958623971584
578.49799;41.5;99.14344;1;0.29754167549560867;0.7024583245043914;0.3531692040829159
583.50702;42.0;99.12755;1;0.30306135563900183;0.6969386443609982;0.3610579002727937
588.49402;42.5;99.11228;1;0.3083656675200355;0.6916343324799645;0.3686978842999183
593.48999;43.0;99.09755;1;0.3134824005919165;0.6865175994080834;0.3761234176743381
598.46997;43.5;99.0831;1;0.318501870577569;0.6814981294224309;0.38346177264398884
603.42603;44.0;99.06899;1;0.3234032353870905;0.6765967646129095;0.3906798044783106
608.396;44.5;99.05507;1;0.32823860024524226;0.6717613997547578;0.3978520613964276
613.35901;45.0;99.04141;1;0.33298364938046976;0.6670163506195302;0.40494071969450934
618.31403;45.5;99.0276;1;0.33778080374045866;0.6622191962595414;0.4121586656761336
623.26898;46.0;99.01371;1;0.3426057475536592;0.6573942524463408;0.4194713606464269
628.22699;46.5;98.99986;1;0.3474167966402563;0.6525832033597436;0.42681663318702395
633.18201;47.0;98.9859;1;0.3522660562250115;0.6477339437749885;0.43427524753530655
638.15302;47.5;98.97191;1;0.3571257368547229;0.6428742631452771;0.44180612107433304
643.12201;48.0;98.95756;1;0.36211047002386454;0.6378895299761355;0.44959016113725164
648.08899;48.5;98.94311;1;0.367129940009517;0.6328700599904831;0.45749015438639057
653.05701;49.0;98.92878;1;0.37210772581535945;0.6278922741846406;0.4653866651507974
658.01703;49.5;98.91403;1;0.3772314062505445;0.6227685937494555;0.47358026779949447
663.04303;50.0;98.89919;1;0.3823863498205835;0.6176136501794165;0.48189217854137184
668.06598;50.5;98.88429;1;0.38756213548053486;0.6124378645194651;0.4903077873917222
673.12;51.0;98.86885;1;0.3929254999496341;0.6070745000503659;0.4991037606098482
678.16101;51.5;98.85323;1;0.3983513906884509;0.6016486093115492;0.5080817095582133
683.19598;52.0;98.83746;1;0.403829386652034;0.5961706133479661;0.5172283888758558
688.19299;52.5;98.82138;1;0.4094150667467919;0.590584933253208;0.5266418209133891
693.20099;53.0;98.80543;1;0.4149555889800926;0.5850444110199073;0.5360675183584291
698.18103;53.5;98.78908;1;0.42063505847943183;0.5793649415205682;0.5458227037265181
703.15802;54.0;98.7727;1;0.42632494902372237;0.5736750509762776;0.5556921562469433
708.117;54.5;98.75626;1;0.4320356816579204;0.5679643183420796;0.5656966820545156
713.08197;55.0;98.73943;1;0.4378818878765049;0.562118112123495;0.5760432872489794
718.03497;55.5;98.72249;1;0.4437663045932523;0.5562336954067477;0.5865667575596
723.00299;56.0;98.70584;1;0.4495499845421192;0.5504500154578809;0.5970191253834638
727.96802;56.5;98.68879;1;0.45547261175702464;0.5445273882429753;0.6078370380706705
732.93298;57.0;98.67192;1;0.46133271270221243;0.5386672872977876;0.6186571764081354
737.91199;57.5;98.65525;1;0.4671233400143835;0.5328766599856165;0.6294652887515017
742.88599;58.0;98.6386;1;0.4729070199632504;0.5270929800367496;0.6403783132958896
747.84601;58.5;98.62211;1;0.47863512100569894;0.5213648789943011;0.6513051387957598
752.82599;59.0;98.60577;1;0.48431111682338607;0.515688883176614;0.6622516349219449
757.79498;59.5;98.58933;1;0.4900218494575841;0.5099781505424159;0.6733873962552077
762.76703;60.0;98.57336;1;0.49556931905418894;0.504430680945811;0.6843248501238473
767.74402;60.5;98.55721;1;0.5011793149205064;0.4988206850794936;0.6955085963498652
772.71899;61.0;98.54152;1;0.5066295214308779;0.4933704785691221;0.7064949093296977
777.70801;61.5;98.52608;1;0.511992885899982;0.48800711410001796;0.7174252951614417
782.68597;62.0;98.51076;1;0.5173145661892663;0.4826854338107337;0.7283901132559196
787.66602;62.5;98.49544;1;0.5226362464785554;0.47736375352144456;0.7394764927159235
792.651;63.0;98.48035;1;0.5278780320898715;0.4721219679101285;0.7505179201885586
797.646;63.5;98.46566;1;0.5329808704351491;0.4670191295648509;0.7613850594865531
802.66199;64.0;98.45114;1;0.5380246561923612;0.4619753438076388;0.7722437577062751
807.66302;64.5;98.43695;1;0.5429538104550894;0.4570461895449106;0.782970821981037
812.65997;65.0;98.42288;1;0.5478412805380025;0.4521587194619975;0.7937220115361686
817.67401;65.5;98.40926;1;0.5525724349466267;0.44742756505337333;0.8042406201714275
822.664;66.0;98.39574;1;0.5572688525387399;0.4427311474612601;0.8147925837762852
827.67401;66.5;98.38265;1;0.5618159018198634;0.4381840981801366;0.8251161414337344
832.71198;67.0;98.36952;1;0.5663768458275902;0.4336231541724098;0.835579430438303
837.74103;67.5;98.35646;1;0.5709134740637575;0.4290865259362425;0.8460966882321757
842.76599;68.0;98.34375;1;0.5753285234421416;0.4246714765578584;0.856439405307888
847.79602;68.5;98.33077;1;0.5798373622251021;0.42016263777489793;0.8671134098626172
852.83301;69.0;98.31802;1;0.5842663063300896;0.4157336936699104;0.8777103831577522
857.84198;69.5;98.30541;1;0.5886466188919678;0.4113533811080322;0.8883026258603625
862.83698;70.0;98.2927;1;0.593061668270352;0.406938331729648;0.8990936241114933
867.828;70.5;98.28002;1;0.5974662966037848;0.4025337033962152;0.9099764504832344
872.81097;71.0;98.2673;1;0.6018848196638161;0.39811518033618387;0.9210139177355662
877.79102;71.5;98.25473;1;0.6062512374990909;0.39374876250090907;0.9320422317020671
882.78699;72.0;98.24187;1;0.6107183921022364;0.38928160789776356;0.9434522695152484
887.77502;72.5;98.22862;1;0.6153210202897733;0.3846789797102267;0.9553461114491963
892.78601;73.0;98.215;1;0.6200521746983975;0.37994782530160254;0.9677213375263539
897.79901;73.5;98.2013;1;0.6248111185602283;0.3751888814397717;0.9803256959784618
902.82703;74.0;98.18723;1;0.6296985886431464;0.37030141135685357;0.9934379796821651
907.85999;74.5;98.17301;1;0.634638163950826;0.36536183604917405;1.0068670848027859
912.89398;75.0;98.15878;1;0.6395812129401623;0.36041878705983765;1.0204886262496595
917.93201;75.5;98.14372;1;0.6448125775065223;0.3551874224934777;1.035109678137799
922.95697;76.0;98.12848;1;0.6501064683426048;0.34989353165739523;1.0501263660400273
927.99402;76.5;98.11282;1;0.6555462538080249;0.3444537461919751;1.0657954611362732
933.034;77.0;98.09648;1;0.6612222496257121;0.3387777503742879;1.082410990219383
938.05701;77.5;98.07991;1;0.6669781401213722;0.33302185987862776;1.099547145875086
943.065;78.0;98.06313;1;0.6728069779317013;0.3271930220682987;1.1172050006780827
948.08002;78.5;98.04596;1;0.6787712893264217;0.3212287106735783;1.1356019152454784
953.08197;79.0;98.02837;1;0.6848814953504799;0.31511850464952007;1.1548065056673793
958.065;79.5;98.01053;1;0.6910785434158103;0.3089214565841897;1.1746682202067642
963.04999;80.0;97.99226;1;0.6974249597921355;0.3025750402078645;1.1954259654718649
968.03998;80.5;97.97407;1;0.7037435867152539;0.29625641328474606;1.2165299385485633
973.02502;81.0;97.95554;1;0.7101803188145034;0.2898196811854966;1.238496338408106
978.02301;81.5;97.93717;1;0.7165614720073394;0.28343852799266056;1.2607600118032785
983.026;82.0;97.91891;1;0.7229044147020126;0.2770955852979874;1.2833927590409562
988.04498;82.5;97.90087;1;0.7291709364003647;0.2708290635996353;1.3062674187412031
993.05701;83.0;97.88287;1;0.7354235633721136;0.26457643662788644;1.3296250840713801
998.10101;83.5;97.86537;1;0.7415025062613129;0.25849749373868713;1.352869280482251
1003.13202;84.0;97.84778;1;0.7476127122853711;0.2523872877146289;1.3767905152148927
1008.17499;84.5;97.8308;1;0.7535110237287219;0.24648897627127808;1.4004380075084202
1013.19501;85.0;97.81401;1;0.759343335220703;0.24065666477929704;1.4243839887098169
1018.229;85.5;97.7977;1;0.765008909993434;0.23499109000656604;1.4482076804224413
1023.25098;86.0;97.78179;1;0.7705355375001313;0.22946446249986874;1.4720071089667737
1028.27295;86.5;97.76624;1;0.7759371124673934;0.2240628875326066;1.4958285186159956
1033.28503;87.0;97.75111;1;0.781192792805313;0.21880720719468705;1.519564269330159
1038.297;87.5;97.73627;1;0.7863477363753518;0.21365226362464818;1.5434055219346647
1043.30701;88.0;97.72186;1;0.791353311634401;0.20864668836559896;1.567112943790643
1048.32605;88.5;97.70775;1;0.7962546764439224;0.20374532355607755;1.5908844789965753
1053.32996;89.0;97.69406;1;0.8010101466241062;0.1989898533758938;1.614501443618415
1058.34204;89.5;97.68076;1;0.8056301432198936;0.19436985678010643;1.6379924566939907
1063.35999;90.0;97.66775;1;0.8101494030478104;0.18985059695218964;1.6615178479732688
1068.375;90.5;97.65504;1;0.8145644524261945;0.18543554757380554;1.6850479097425441
1073.39502;91.0;97.6424;1;0.818955186033024;0.18104481396697603;1.709010687384131
1078.41003;91.5;97.63017;1;0.8232034986921579;0.17679650130784208;1.732755917957192
1083.43396;92.0;97.61771;1;0.8275317060292698;0.17246829397073016;1.7575418624728076
1088.44397;92.5;97.60518;1;0.8318842291379364;0.16811577086206364;1.7831024246335285
1093.43994;93.0;97.59262;1;0.8362471732915592;0.16375282670844082;1.8093971422741448
1098.45898;93.5;97.58021;1;0.8405580122204156;0.1594419877795844;1.8360751358975085
1103.45105;94.0;97.56783;1;0.8448584301043158;0.15514156989568417;1.8634172247512977
1108.45605;94.5;97.55549;1;0.8491449532616128;0.15085504673838723;1.891435858594376
1113.45398;95.0;97.54296;1;0.8534974763702843;0.14650252362971572;1.920712624531979
1118.46997;95.5;97.53096;1;0.8576658943514501;0.14233410564854987;1.9495781283341196
1123.46704;96.0;97.51912;1;0.8617787334261976;0.1382212665738024;1.9788994968982598
1128.48499;96.5;97.50746;1;0.8658290462312325;0.13417095376876753;2.0086405177461013
1133.49304;97.0;97.49675;1;0.8695493592794189;0.1304506407205811;2.036760355793362
1138.50806;97.5;97.4867;1;0.8730404093386476;0.12695959066135243;2.06388642692362
1143.51196;98.0;97.47783;1;0.8761215649630598;0.12387843503694018;2.08845455685215
1148.52502;98.5;97.47044;1;0.8786886157031281;0.12131138429687194;2.109394615029795
1153.54602;99.0;97.46482;1;0.8806408247909716;0.11935917520902839;2.1256180526625887
1158.55298;99.5;97.46127;1;0.8818739817770679;0.11812601822293212;2.1360032733287073
1163.56702;100.0;97.4598;1;0.8823846129797599;0.1176153870202401;2.140335410067835
1168.58997;100.5;97.4598;1;0.8823846129797599;0.1176153870202401;2.140335410067835
1173.59705;101.0;97.46203;1;0.8816099819715942;0.11839001802840576;2.133770867278802
1178.61597;101.5;97.46667;1;0.8799981936855452;0.12000180631445478;2.120248483692924
1183.62598;102.0;97.47293;1;0.8778236689720331;0.12217633102796688;2.102289941447228
1188.61804;102.5;97.48037;1;0.8752392498237144;0.12476075017628563;2.0813573743054534
1193.60706;103.0;97.48814;1;0.8725401991809069;0.12745980081909314;2.059954251790658
1198.60901;103.5;97.49647;1;0.8696466223656474;0.13035337763435262;2.0375062268988082
1203.60706;104.0;97.50531;1;0.8665758877861914;0.13342411221380857;2.0142224106061986
1208.61096;104.5;97.51402;1;0.8635503110681926;0.13644968893180742;1.9917993115533092
1213.62903;105.0;97.52273;1;0.8605247343501987;0.13947526564980128;1.9698680006113745
1218.64294;105.5;97.53126;1;0.8575616839019174;0.14243831609808255;1.9488462424756134
1223.64905;106.0;97.53972;1;0.8546229492251959;0.14537705077480412;1.9284245614513786
1228.65796;106.5;97.54791;1;0.8517780039530506;0.1482219960469494;1.909044155764083
1233.66699;107.0;97.55572;1;0.8490650585836447;0.15093494141635533;1.8909063865577251
1238.66895;107.5;97.56312;1;0.8464945341619244;0.15350546583807556;1.8740191045231984
1243.68103;108.0;97.57032;1;0.8439934833732259;0.15600651662677412;1.8578574993565258
1248.68005;108.5;97.57647;1;0.8418571691578767;0.15814283084212333;1.8442566616387972
1253.68103;109.0;97.58202;1;0.8399292758415877;0.16007072415841228;1.8321395354229422
1258.68799;109.5;97.58677;1;0.8382792770573758;0.16172072294262418;1.8218843638842621
1263.68799;110.0;97.591;1;0.8368099097190174;0.16319009028098264;1.8128395596132527
1268.69104;110.5;97.59383;1;0.8358268578117914;0.16417314218820855;1.8068336630147586
1273.69202;111.0;97.5953;1;0.8353162266090994;0.16468377339090057;1.803728168868929
1278.69397;111.5;97.5956;1;0.8352120161595669;0.16478798384043314;1.8030955777546955
1283.72205;112.0;97.59266;1;0.8362332785649558;0.16376672143504423;1.8093122940463644
1288.71997;112.5;97.58549;1;0.838723908308703;0.16127609169129697;1.8246375274576336
1293.72705;113.0;97.57454;1;0.8425275897165146;0.15747241028348535;1.8485050088642645
1298.70801;113.5;97.55814;1;0.8482244276241093;0.15177557237589068;1.8853523467595026
1303.66699;114.0;97.53459;1;0.856404947912147;0.14359505208785295;1.9407580791743655
1308.62402;114.5;97.50188;1;0.8677673605924726;0.13223263940752739;2.0231924878811096
1313.59595;115.0;97.45294;1;0.8847675585923274;0.11523244140767264;2.1608039609232397
1318.56799;115.5;97.39569;1;0.9046543860441375;0.0953456139558625;2.3502469474078467
1323.55603;116.0;97.32509;1;0.9291785784999953;0.0708214215000047;2.6475937604861977
1328.53796;116.5;97.24276;1;0.9577773995324427;0.042222600467557325;3.1647996451959046
1329.93553;117.0;97.12121;2;1.0;0.0;inf
