##Temp./Â°C;Time/min;Mass/%;Segment;Alpha;F_alpha;G_alpha
120.403;0.0;100.0;1;0.0;1.0;-0.0
131.328;0.25;99.982;1;0.0045290082981498244;0.9954709917018502;0.00453929532801226
142.96001;0.5;99.96706;1;0.008288085185612963;0.991711914814387;0.00832262232720384
155.276;0.75;99.95583;1;0.011113683140513511;0.9888863168594865;0.011175901530116838
168.10899;1.0;99.94721;1;0.013282574892184873;0.9867174251078151;0.01337157728932786
181.452;1.25;99.93998;1;0.01510172655860649;0.9848982734413935;0.015216918837366646
195.27901;1.5;99.93321;1;0.016805136901855765;0.9831948630981442;0.016947945420380316
209.455;1.75;99.92652;1;0.01848841831933625;0.9815115816806638;0.01866146535494121
223.879;2.0;99.91986;1;0.020164151389650754;0.9798358486103492;0.02037022276545967
238.49699;2.25;99.91325;1;0.02182730388135887;0.9781726961186411;0.02206904363748545
253.242;2.5;99.90633;1;0.023568455960427316;0.9764315440395727;0.023850634512855486
268.065;2.75;99.89922;1;0.025357414238195746;0.9746425857618043;0.025684453896530207
282.841;3.0;99.89169;1;0.027252049376255697;0.9727479506237443;0.027630273905872447
297.49899;3.25;99.88394;1;0.029202039060181612;0.9707979609398184;0.029636905523513366
311.983;3.5;99.87615;1;0.031162093206991925;0.9688379067930081;0.03165795993542321
326.21201;3.75;99.86901;1;0.03295859983192276;0.9670414001680773;0.033513971448315395
340.12799;4.0;99.8625;1;0.03459659116642167;0.9654034088335783;0.03520922475557875
353.70099;4.25;99.85634;1;0.03614651845067587;0.9638534815493242;0.03681598601731837
366.84;4.5;99.85036;1;0.03765115565195206;0.9623488443480479;0.03837826998622578
379.53;4.75;99.84401;1;0.039248889134909815;0.9607511108650901;0.040039893290035246
391.741;5.0;99.83716;1;0.04097242840392788;0.9590275715960721;0.04183545415111486
403.453;5.25;99.8296;1;0.04287461188915024;0.9571253881108498;0.043820874052418975
414.673;5.5;99.82132;1;0.044957955706298874;0.9550420442937011;0.045999914032067504
425.41901;5.75;99.81208;1;0.047282846632683735;0.9527171533673162;0.048437215427485816
435.65601;6.0;99.8018;1;0.049869413594070044;0.95013058640593;0.05115584445956158
445.43301;6.25;99.79012;1;0.052808236756424515;0.9471917632435755;0.05425371079014683
454.75601;6.5;99.77643;1;0.05625279917873866;0.9437472008212613;0.05789694444050781
463.689;6.75;99.76066;1;0.060220713671062846;0.9397792863289371;0.062110233066067104
472.22501;7.0;99.74224;1;0.0648553988295042;0.9351446011704958;0.06705410799280993
480.431;7.25;99.7208;1;0.07024995093574425;0.9297500490642557;0.07283949340550891
488.327;7.5;99.69069;1;0.0778259753722585;0.9221740246277415;0.08102132635124329
495.98599;7.75;99.66282;1;0.08483838988722867;0.9151616101127713;0.0886546062285675
503.41199;8.0;99.6325;1;0.09246725275389045;0.9075327472461096;0.09702562837450353
510.66299;8.25;99.59914;1;0.10086101479979136;0.8991389852002086;0.1063176566820682
517.78998;8.5;99.56469;1;0.10952903345930726;0.8904709665406927;0.11600478033171828
524.80499;8.75;99.52826;1;0.11869524303161684;0.8813047569683832;0.1263517912190334
531.763;9.0;99.49064;1;0.12816087037475063;0.8718391296252493;0.13715035646720697
538.69202;9.25;99.45259;1;0.13773469069389432;0.8622653093061057;0.14819227225628748
545.61401;9.5;99.41455;1;0.14730599489731605;0.8526940051026839;0.15935452374707995
552.57501;9.75;99.37704;1;0.15674394496751864;0.8432560550324814;0.1704846244762006
559.60498;10.0;99.34179;1;0.16561325288472603;0.8343867471152739;0.1810582585529759
566.69;10.25;99.30919;1;0.17381579013581983;0.8261842098641802;0.19093751596175126
573.87402;10.5;99.27893;1;0.18142955630815324;0.8185704436918467;0.20019582149816254
581.15802;10.75;99.25193;1;0.18822306875537798;0.811776931244622;0.208529691777579
588.51001;11.0;99.22766;1;0.19432968161071676;0.8056703183892833;0.21608065440931132
595.96899;11.25;99.20822;1;0.19922101057271915;0.8007789894272809;0.22217028830424176
603.50403;11.5;99.18987;1;0.2038380829211101;0.7961619170788898;0.22795270040776702
611.10199;11.75;99.17154;1;0.20845012303806068;0.7915498769619393;0.2337623859017671
618.737;12.0;99.15388;1;0.21289358340168776;0.7871064165983123;0.2393918216648116
626.42499;12.25;99.13723;1;0.21708291607747582;0.7829170839225241;0.24472848397217728
634.09698;12.5;99.12112;1;0.22113637850431916;0.7788636214956808;0.24991931712103613
641.78601;12.75;99.10547;1;0.22507409960799016;0.7749259003920098;0.2549878665973534
649.479;13.0;99.08977;1;0.22902440129026397;0.770975598709736;0.260098554804552
657.19299;13.25;99.07438;1;0.23289670338518104;0.767103296614819;0.2651338105227717
664.92798;13.5;99.05846;1;0.2369023596133244;0.7630976403866756;0.27036928683302125
672.67102;13.75;99.04178;1;0.24109924063627486;0.7589007593637251;0.27588426196172144
680.388;14.0;99.02462;1;0.24541689521384522;0.7545831047861548;0.28158986133131586
688.07599;14.25;99.0068;1;0.24990061342901346;0.7500993865709865;0.28754956580319263
695.70801;14.5;98.98842;1;0.25452523412456685;0.7454747658754332;0.2937339939411887
703.28601;14.75;98.97008;1;0.2591397903572394;0.7408602096427606;0.29994332243731897
710.78802;15.0;98.95129;1;0.2638675717973623;0.7361324282026377;0.30634524681550496
718.22601;15.25;98.93192;1;0.2687412879493143;0.7312587120506857;0.3129879665915733
725.59998;15.5;98.91233;1;0.27367035864713585;0.7263296413528642;0.3197513157572824
732.91602;15.75;98.89274;1;0.2785994293449538;0.7214005706550461;0.3265607194746884
740.18799;16.0;98.87232;1;0.28373733764763287;0.7162626623523671;0.33370833243250136
747.422;16.25;98.85224;1;0.28878969801579274;0.7112103019842073;0.3407871095327318
754.60303;16.5;98.83223;1;0.2938244455739022;0.7061755544260978;0.3478914117396376
761.76001;16.75;98.81204;1;0.29890448321499324;0.7010955167850068;0.3551111433339381
768.89099;17.0;98.79177;1;0.30400464978185315;0.6959953502181468;0.3624122993910869
776.04199;17.25;98.77188;1;0.30900920395130943;0.6909907960486905;0.3696287750590507
783.20099;17.5;98.75192;1;0.3140313709308125;0.6859686290691875;0.37692338252175345
790.35901;17.75;98.7318;1;0.3190937957618532;0.6809062042381469;0.38433071471486235
797.53699;18.0;98.71187;1;0.3241084143941939;0.6758915856058061;0.3917225921236026
804.72101;18.25;98.69198;1;0.32911296856365024;0.6708870314363498;0.399154514699468
811.95801;18.5;98.6722;1;0.3340898454601718;0.6659101545398283;0.4066005206353396
819.24103;18.75;98.65272;1;0.33899123888505855;0.6610087611149414;0.4139881848840354
826.53497;19.0;98.63332;1;0.3438725033841765;0.6561274966158235;0.42140015432516403
833.85498;19.25;98.61388;1;0.3487638323461789;0.6512361676538211;0.4288829258271567
841.22302;19.5;98.59486;1;0.3535494844478898;0.6464505155521102;0.4362586257691537
848.63202;19.75;98.57603;1;0.3582873303508971;0.6417126696491029;0.44361463053853867
856.03998;20.0;98.55701;1;0.36307298245260794;0.636927017547392;0.45110020211296464
863.46997;20.25;98.53806;1;0.367841021744272;0.632158978255728;0.45861436859515387
870.91498;20.5;98.51952;1;0.37250590029136654;0.6274940997086335;0.4660210108751726
878.349;20.75;98.50035;1;0.37732929412889654;0.6226707058711034;0.47373746193747207
885.776;21.0;98.48122;1;0.3821426235035422;0.6178573764964578;0.48149763052698624
893.203;21.25;98.46182;1;0.3870238880026566;0.6129761119973434;0.489429312814465
900.62903;21.5;98.44212;1;0.3919806359734094;0.6080193640265906;0.4975485487951849
908.039;21.75;98.42132;1;0.3972141566734955;0.6027858433265045;0.5061932973653837
915.48901;22.0;98.39999;1;0.4025810315068008;0.5974189684931992;0.5151366219579713
922.92401;22.25;98.37752;1;0.40823474353232386;0.5917652564676761;0.5246452489724819
930.37097;22.5;98.35248;1;0.4145350972981953;0.5854649027018046;0.5353490418883039
937.80402;22.75;98.32881;1;0.42049074321026103;0.579509256789739;0.5455736425771246
945.25299;23.0;98.30208;1;0.4272163205330134;0.5727836794669866;0.5572471562922735
952.672;23.25;98.27466;1;0.43411550984052966;0.5658844901594704;0.5693653025966481
960.09802;23.5;98.24535;1;0.4414902450193488;0.5585097549806513;0.5824831942321295
967.51703;23.75;98.21551;1;0.4489983343313943;0.5510016656686056;0.596017446841767
974.93402;24.0;98.18367;1;0.45700964678767386;0.5429903532123261;0.6106637249291702
982.34302;24.25;98.15066;1;0.4653153447833372;0.5346846552166629;0.6260781353695554
989.77802;24.5;98.11594;1;0.4740512985673254;0.5259487014326746;0.6425515967937709
997.21503;24.75;98.07903;1;0.48333828169425136;0.5166617183057487;0.6603669352555632
1004.66101;25.0;98.04057;1;0.4930152627579646;0.5069847372420354;0.679274379903192
1012.12903;25.25;97.9998;1;0.5032734665532759;0.49672653344672413;0.6997156388337041
1019.59399;25.5;97.9562;1;0.5142437310976823;0.4857562689023177;0.7220482851932113
1027.09204;25.75;97.9107;1;0.5256920576291135;0.47430794237088647;0.7458985007804735
1034.59204;26.0;97.86222;1;0.5378901866454663;0.4621098133545337;0.7719527249009068
1042.10999;26.25;97.81166;1;0.5506116677318219;0.4493883322681781;0.7998678824781016
1049.62;26.5;97.75861;1;0.5639596616327572;0.43604033836724276;0.8300205207218153
1057.14197;26.75;97.70506;1;0.5774334613197527;0.4225665386802473;0.8614083565842565
1064.672;27.0;97.65113;1;0.5910028734041555;0.40899712659584453;0.8940471484020468
1072.20703;27.25;97.5961;1;0.6048490582178844;0.39515094178211563;0.9284874559805433
1079.73596;27.5;97.53605;1;0.6199583331236568;0.3800416668763432;0.9674743825982043
1087.29004;27.75;97.48193;1;0.6335755514067595;0.3664244485932405;1.0039629218983404
1094.828;28.0;97.42615;1;0.6476104448995806;0.35238955510041936;1.0430180246884826
1102.35901;28.25;97.36953;1;0.6618566921129849;0.3381433078870151;1.0842854855251551
1109.91101;28.5;97.31104;1;0.676573452966248;0.32342654703375195;1.128783247905227
1117.43506;28.75;97.24874;1;0.6922488539092901;0.30775114609070986;1.1784637898279697
1124.96301;29.0;97.18397;1;0.7085457354354642;0.2914542645645358;1.2328721823638462
1132.47595;29.25;97.11571;1;0.725720741348335;0.274279258651665;1.2936084994584076
1139.99194;29.5;97.04268;1;0.7440959344602173;0.25590406553978273;1.3629526487218726
1147.49194;29.75;96.96739;1;0.7630397697250912;0.23696023027490876;1.439862956675018
1155.00696;30.0;96.88974;1;0.7825774083001624;0.21742259169983758;1.5259123920315478
1162.51904;30.25;96.81022;1;0.8025855605150997;0.19741443948490034;1.6224500063048743
1170.03796;30.5;96.73356;1;0.8218741036337758;0.17812589636622422;1.7252646957404494
1177.55298;30.75;96.66217;1;0.83983665376738;0.16016334623261996;1.8315610705726697
1185.10498;31.0;96.59893;1;0.8557485695882143;0.14425143041178567;1.9361974574435392
1192.68298;31.25;96.54656;1;0.8689254676201077;0.1310745323798923;2.0319891681065414
1200.28601;31.5;96.50723;1;0.8788213507515628;0.12117864924843724;2.1104893821816746
1207.85205;31.75;96.47939;1;0.8858262169193706;0.11417378308062942;2.1700335783376636
1215.41699;32.0;96.46109;1;0.8904307086891552;0.10956929131084481;2.211198132498093
1222.948;32.25;96.44895;1;0.8934852731746855;0.10651472682531449;2.239472023342561
1230.43298;32.5;96.43752;1;0.8963611934440081;0.10363880655599189;2.266843438638282
1237.875;32.75;96.42581;1;0.8993075649535285;0.10069243504647152;2.2956846057491425
1245.28198;33.0;96.41461;1;0.9021256145612667;0.09787438543873328;2.3240704037331996
1252.69299;33.25;96.40546;1;0.9044278604461572;0.0955721395538428;2.3478739286590162
1260.13196;33.5;96.39933;1;0.9059702393832489;0.09402976061675106;2.364143944514205
1267.59399;33.75;96.39521;1;0.9070068790603811;0.09299312093961887;2.3752297569558722
1275.07898;34.0;96.3909;1;0.9080913249362168;0.0919086750637832;2.3869598572988426
1282.56604;34.25;96.38474;1;0.9096412522204745;0.09035874777952546;2.4039674456066744
1290.03406;34.5;96.37445;1;0.9122303352975828;0.0877696647024172;2.433039342569785
1297.48401;34.75;96.35808;1;0.9163492167331765;0.08365078326682351;2.481104487973017
1304.91602;35.0;96.33277;1;0.9227175056235204;0.0772824943764796;2.5602878124704107
1312.31799;35.25;96.2951;1;0.932195713545257;0.06780428645474301;2.6911298639878596
1319.70105;35.5;96.24798;1;0.9440516508235259;0.055948349176474066;2.883326349995078
1327.07495;35.75;96.18166;2;0.9607385302864874;0.03926146971351263;3.2375116554419305
1333.44933;36.0;96.12221;2;0.9756968382489868;0.024303161751013214;3.7171488238892034
1336.43815;36.25;96.02562;2;1.0;0.0;inf
