##Temp./Â°C;Time/min;Mass/%;Segment;Alpha;F_alpha;G_alpha
119.648;0.0;100.0;1;0.0;-0.0;-0.0
130.702;0.25;99.98193;1;0.005137200495807921;0.1427957912856785;0.07176657492713738
142.478;0.5;99.96674;1;0.009455633009995353;0.19309895899748544;0.09747113074009028
154.935;0.75;99.9551;1;0.012764820269055776;0.2237954855736871;0.11334456579772569
167.91701;1.0;99.94654;1;0.015198380658881096;0.2437463369908147;0.12375402934140842
181.33701;1.25;99.93934;1;0.017245300612938382;0.25923670289027967;0.1318928838762939
195.24899;1.5;99.93298;1;0.019053413239023192;0.27211160314795035;0.13869848104902713
209.508;1.75;99.92669;1;0.02084162525444531;0.2842048470912111;0.14512710835214218
224.035;2.0;99.92051;1;0.02259856488167859;0.2955428300928985;0.15118804795755234
238.77499;2.25;99.91396;1;0.024460693450992433;0.30703819813749067;0.15736844024442503
253.653;2.5;99.90726;1;0.026365466186021272;0.3183011742636305;0.16346029398565104
268.577;2.75;99.90009;1;0.02840385730693394;0.3298568298793082;0.169749968832221
283.46701;3.0;99.89247;1;0.03057018092497948;0.3416312259949425;0.17620214443213084
298.23999;3.25;99.88482;1;0.0327450333761656;0.35297862895416215;0.18246410777616384
312.84;3.5;99.87709;1;0.03494262938239998;0.3640082189430449;0.18859408260365573
327.189;3.75;99.86963;1;0.03706346589035303;0.37427287442090545;0.19433932619815214
341.22601;4.0;99.86277;1;0.03901372573547033;0.38340896993780826;0.1994872248468076
354.879;4.25;99.8566;1;0.04076782241832207;0.39139554931921366;0.20401502288317816
368.07501;4.5;99.85072;1;0.04243947371413747;0.3988160714606279;0.20824588133741037
380.819;4.75;99.84462;1;0.04417366978632248;0.4063287112102757;0.2125536294440852
393.05701;5.0;99.83822;1;0.0459931541899294;0.4140188865875732;0.2169894736111771
404.79999;5.25;99.83117;1;0.04799742997827977;0.4222753087950335;0.22178265169252598
415.996;5.5;99.82352;1;0.050172282429465885;0.4309943541242221;0.22688027847124628
426.72;5.75;99.81511;1;0.05256319865358025;0.44030863047579316;0.23236833836835477
436.92001;6.0;99.80572;1;0.05523272342700055;0.45039405541988775;0.2383624341084421
446.61801;6.25;99.79495;1;0.05829457452494388;0.4615807932852252;0.24507705955520778
455.879;6.5;99.78256;1;0.06181698261255101;0.47398296495195125;0.25260687742560506
464.698;6.75;99.76797;1;0.06596483846389865;0.4879963050395853;0.26123015767256197
473.151;7.0;99.75082;1;0.07084048807668987;0.5037205084580854;0.2710624505233827
481.26199;7.25;99.73119;1;0.07642118789588044;0.5208170322193341;0.2819559226530956
489.07401;7.5;99.70338;1;0.08432741621843018;0.5435623100590659;0.296810410012631
496.62201;7.75;99.67742;1;0.09170769983056094;0.5634020380947322;0.31014357271862336
503.944;8.0;99.6495;1;0.0996452005412955;0.5834031536754196;0.32398514120553534
511.108;8.25;99.61908;1;0.10829343734719248;0.6037799490176219;0.3385530477769445
518.14398;8.5;99.58653;1;0.11754722130616324;0.6241131295034243;0.35362409444004805
525.08002;8.75;99.55171;1;0.12744635363953719;0.6443467883006723;0.369230471380372
531.974;9.0;99.51667;1;0.13740803074928482;0.6632732210122814;0.3844652191629081
538.84003;9.25;99.48006;1;0.1478160501267966;0.6816467478705187;0.3999410854733541
545.71503;9.5;99.44282;1;0.15840317500028472;0.6989900344299484;0.4152760643020397
552.63;9.75;99.40683;1;0.16863493182619363;0.714560609551118;0.4297514033881268
559.60797;10.0;99.37175;1;0.17860798071346337;0.7286905466884265;0.4435705056651081
566.672;10.25;99.33946;1;0.18778784811853835;0.7408402525623631;0.4560632655188869
573.82599;10.5;99.30969;1;0.1962512935396919;0.7513543553236252;0.46740626098956567
581.07898;10.75;99.28358;1;0.20367422131753363;0.7600584900649957;0.477228359555636
588.43103;11.0;99.2594;1;0.21054846082991213;0.7677055235230671;0.4862271370894525
595.87701;11.25;99.24266;1;0.21530754972309663;0.7727741464787321;0.4924057483960974
603.41803;11.5;99.22379;1;0.22067218576935896;0.7782726810660942;0.4993230492064572
611.02002;11.75;99.20641;1;0.2256132231029013;0.783140251062537;0.505651874765032
618.66699;12.0;99.19067;1;0.23008801755802488;0.7873893709200659;0.5113502509875588
626.39301;12.25;99.17575;1;0.23432969057393502;0.7912803242299198;0.5167239179112559
634.09698;12.5;99.1615;1;0.23838088631633864;0.7948745423899514;0.5218320602180309
641.80798;12.75;99.14783;1;0.24226719128466956;0.7982123720638281;0.5267109744245648
649.534;13.0;99.13449;1;0.246059679088438;0.8013673685406779;0.531452786323839
657.24799;13.25;99.12115;1;0.24985216689220646;0.8044229181949736;0.5361762593263273
664.99103;13.5;99.10732;1;0.25378395897062583;0.807487300129232;0.5410546381550152
672.72803;13.75;99.09311;1;0.2578237829355114;0.8105278905288352;0.5460481432123333
680.45697;14.0;99.07864;1;0.26193752345429266;0.8135133422125512;0.5511141455259793
688.13202;14.25;99.06375;1;0.2661706676370582;0.8164705252329314;0.5563081831329116
695.76599;14.5;99.04879;1;0.27042371243049046;0.8193259835468333;0.5615080955250844
703.32599;14.75;99.03356;1;0.2747535167222;0.8221156966864132;0.566783649174558
710.81897;15.0;99.01776;1;0.27924536884360474;0.8248866145084709;0.5722381645921608
718.25098;15.25;99.00158;1;0.28384525285147155;0.8275960707911341;0.5778053375239953
725.60699;15.5;98.98541;1;0.28844229391496085;0.8301762509906058;0.5833513177435748
732.90997;15.75;98.96862;1;0.293215597530049;0.8327223409467118;0.5890921885349013
740.151;16.0;98.95161;1;0.29805144592151084;0.8351655900220792;0.5948908827930247
747.34003;16.25;98.93444;1;0.3029327814230651;0.8374947834249454;0.6007274198998297
754.51202;16.5;98.91721;1;0.30783117459090054;0.8396956586493259;0.6065685334448805
761.65503;16.75;98.90011;1;0.3126926094817881;0.8417466243706608;0.6123509189505483
768.78198;17.0;98.88292;1;0.31757963087210145;0.8436763150491511;0.6181500093024261
775.91101;17.25;98.86575;1;0.32246096637365174;0.8454732816367537;0.6239295742944742
783.03998;17.5;98.84817;1;0.3274588625948127;0.8471797571171862;0.6298348978218592
790.17102;17.75;98.83101;1;0.33233735515198143;0.8487168877455206;0.6355881179624149
797.33301;18.0;98.81377;1;0.3372385912641984;0.8501348032516639;0.6413581056818559
804.534;18.25;98.79657;1;0.3421284555988933;0.8514246502064343;0.647105546251836
811.75702;18.5;98.77986;1;0.34687901565893725;0.8525597190981619;0.6526813098482158
819.01001;18.75;98.76337;1;0.3515670309426075;0.8535670175797838;0.6581767571292593
826.29602;19.0;98.74682;1;0.3562721038925589;0.8544664403350596;0.6636860430485719
833.61902;19.25;98.73095;1;0.36078385662462636;0.8552249813067663;0.6689638474951215
840.96802;19.5;98.71522;1;0.3652558081353684;0.8558773644507478;0.6741907806485893
848.34802;19.75;98.69976;1;0.3696510001478331;0.8564229164296078;0.6793244033309016
855.77002;20.0;98.68461;1;0.3739580608844944;0.856866339352336;0.6843521861833628
863.20502;20.25;98.66972;1;0.37819120506726395;0.8572149123184325;0.6892914021995793
870.65302;20.5;98.65502;1;0.3823703333068004;0.8574748617422772;0.6941658634479244
878.10999;20.75;98.64046;1;0.38650966032500345;0.8576505085508914;0.6989926760747703
885.552;21.0;98.62505;1;0.39089063761556453;0.857748358119956;0.7041004547707096
893.00702;21.25;98.61016;1;0.3951237817983341;0.8577575086222237;0.7090355702629452
900.44702;21.5;98.59497;1;0.3994422143125175;0.8576809727543424;0.7140703136272896
907.89001;21.75;98.57955;1;0.4038260345474601;0.8575151837702678;0.719182011847289
915.32703;22.0;98.56367;1;0.40834063022390904;0.8572523175446414;0.7244475126533211
922.77698;22.25;98.54696;1;0.41309119028395297;0.8568754623620553;0.729990288249908
930.23297;22.5;98.52945;1;0.41806918589444725;0.8563710266605608;0.7358014096373567
937.67902;22.75;98.51139;1;0.42320354344587363;0.8557341314880396;0.7417990538641058
945.117;23.0;98.49218;1;0.42866483960107593;0.8549276304822384;0.748183981785141
952.55402;23.25;98.47217;1;0.43435357130672864;0.8539470897639295;0.7548417584255558
959.97998;23.5;98.45129;1;0.4402896391734984;0.8527722090697468;0.7617977696629491
967.38397;23.75;98.42921;1;0.4465668603659437;0.8513624653206566;0.7691646961036689
974.78802;24.0;98.4053;1;0.4533643403800449;0.8496432940552398;0.7771568494506458
982.17798;24.25;98.38196;1;0.4599997725644469;0.8477733347889327;0.7849749793763847
989.59302;24.5;98.35566;1;0.4674767162855217;0.8454408193509791;0.7938064355175473
996.99902;24.75;98.32941;1;0.47493944528469284;0.8428762141095009;0.8026466724076392
1004.44299;25.0;98.30205;1;0.48271774111011373;0.8399533674995221;0.8118907550609838
1011.90997;25.25;98.2725;1;0.4911186417548936;0.836512034849257;0.8219126337561229
1019.39697;25.5;98.24261;1;0.4996162025086135;0.8327323835562933;0.832093672627987
1026.88098;25.75;98.21154;1;0.5084492306992499;0.828486941522396;0.842727743769937
1034.39294;26.0;98.17869;1;0.5177883029896385;0.8236492299102768;0.8540328190054032
1041.93396;26.25;98.14519;1;0.5273121666647705;0.8183481503012885;0.8656327628819223
1049.46204;26.5;98.11041;1;0.5371999272206225;0.8124534702782455;0.8777585809343121
1057.00903;26.75;98.07472;1;0.5473463957151135;0.8059919706686521;0.8902966452039837
1064.56897;27.0;98.03816;1;0.5577402003707176;0.7989409693570456;0.9032484639421736
1072.12097;27.25;98.00134;1;0.5682079215802215;0.7913989563382914;0.9164120833742012
1079.68604;27.5;97.9639;1;0.5788519053413242;0.7832769180832633;0.9299305019034682
1087.23901;27.75;97.92564;1;0.5897290105416364;0.7745053045817021;0.9438947969538349
1094.81494;28.0;97.88699;1;0.6007169905727962;0.7651599469713469;0.9581674262436263
1102.37598;28.25;97.84694;1;0.6121029828172421;0.7549617609708128;0.9731471595914748
1109.92395;28.5;97.8047;1;0.624111579881051;0.7436372424563266;0.9891728537700156
1117.46802;28.75;97.76075;1;0.6366063204339455;0.7312320692433487;1.0061155578112246
1125.00098;29.0;97.71381;1;0.6499511013566533;0.7172782697496015;1.0245401035819468
1132.51404;29.25;97.66333;1;0.6643022845901025;0.7014537488539627;1.0447699174798757
1140.01794;29.5;97.60992;1;0.67948645052708;0.6837781490904328;1.066691486545415
1147.51404;29.75;97.55373;1;0.6954609550018747;0.6641342285588778;1.0903925776791052
1154.99805;30.0;97.48731;1;0.7143437915780622;0.6395041265811681;1.1193597543599816
1162.48999;30.25;97.42722;1;0.7314270443613012;0.6158777114906964;1.1465743265662494
1169.99194;30.5;97.36797;1;0.748271489816572;0.5913003818252858;1.174480358610196
1177.505;30.75;97.31101;1;0.7644649010086765;0.5664401878652883;1.2024538811647651
1185.00598;31.0;97.26078;1;0.7787450106326115;0.5434843074435705;1.228185427586286
1192.53796;31.25;97.21903;1;0.7906143034217654;0.5236446655740118;1.2504308415793768
1200.12097;31.5;97.18826;1;0.7993620432809839;0.5085692478048693;1.2673804501435797
1207.70203;31.75;97.17015;1;0.804510615554314;0.49951255337174305;1.277595084735984
1215.28601;32.0;97.16056;1;0.8072369992153449;0.4946606320039476;1.2830798181974685
1222.84595;32.25;97.15795;1;0.8079790076986921;0.4933333703350878;1.2845818689473767
1230.39795;32.5;97.15897;1;0.8076890273718681;0.49385241616291536;1.2839943800759317
1237.93604;32.75;97.16363;1;0.8063642152904913;0.49621810316562315;1.2813181817349688
1245.44702;33.0;97.16821;1;0.8050621467641588;0.4985341851680119;1.2787003060018092
1252.927;33.25;97.17235;1;0.8038851677905775;0.5006201180678348;1.2763443550593978
1260.38098;33.5;97.17507;1;0.8031118869190415;0.5019866475011556;1.2748018142028295
1267.82495;33.75;97.17637;1;0.8027423041495586;0.5026386674708822;1.2740660517802491
1275.25903;34.0;97.17591;1;0.802873079591069;0.5024080340206901;1.2743262893228056
1282.68103;34.25;97.17053;1;0.8044025836678519;0.4997040060836637;1.2773788515567757
1290.10303;34.5;97.16159;1;0.8069441759441394;0.4951836182774724;1.2824881629424223
1297.51599;34.75;97.14666;1;0.811188691904431;0.48755849269259166;1.291126303848836
1304.91699;35.0;97.11805;1;0.8193223557774311;0.4726771394487726;1.308067584904146
1312.30603;35.25;97.08429;1;0.828920136006459;0.454650948009583;1.3287681478012747
1319.69299;35.5;97.03929;1;0.841713385719322;0.4298113074342236;1.3576994788456045
1327.05505;35.75;96.98337;1;0.8576111306958394;0.39758822008873745;1.396135182587337
1333.44702;36.0;96.92672;2;0.8737164106121403;0.36331287757453284;1.438480167279202
1336.58496;36.25;96.83984;2;0.8984159113911093;0.30723894668979485;1.5122395194817213
1336.56006;36.5;96.75304;2;0.92309266861503;0.2463510769880149;1.601609837135497
1333.98303;36.75;96.68181;2;0.9433429614383011;0.19199093548934537;1.6943255450977137
1329.15796;37.0;96.62479;2;0.9595534302966867;0.14488170031164704;1.7910258073106593
1322.29602;37.25;96.57891;2;0.9725968591150485;0.10394568187108547;1.8966016032156245
1313.61401;37.5;96.54538;2;0.9821292516233211;0.07170237834762772;2.006138098872188
1303.28796;37.75;96.52435;2;0.9881079636557978;0.05007033872083816;2.1052045785770406
1291.50598;38.0;96.50567;2;0.9934185837588271;0.02950209027710928;2.2413177647499394
1278.51294;38.25;96.49256;2;0.9971456838418403;0.013817865673429465;2.420521222557657
1264.60706;38.5;96.48392;2;0.9996019877867098;0.0022273081900896353;2.7980400044481053
1250.18103;38.75;96.4779;2;1.0013134403038506;;
1235.54797;39.0;96.47434;2;1.0023255285033592;;
1221.03894;39.25;96.47195;2;1.0030049922103288;;
1206.82495;39.5;96.47032;2;1.003468392144374;;
1193.13098;39.75;96.46941;2;1.0037271000830132;;
1180.03003;40.0;96.46892;2;1.0038664043576642;;
1167.58105;40.25;96.46858;2;1.0039630644666042;;
1155.78296;40.5;96.46824;2;1.0040597245755483;;
1144.62598;40.75;96.46801;2;1.0041251122962993;;
1134.05505;41.0;96.46797;2;1.0041364840738256;;
1123.96997;41.25;96.46801;2;1.0041251122962993;;
1114.30396;41.5;96.46805;2;1.0041137405187772;;
1104.91101;41.75;96.46809;2;1.0041023687412551;;
1095.73706;42.0;96.46824;2;1.0040597245755483;;
1086.69202;42.25;96.46832;2;1.0040369810204999;;
1077.68396;42.5;96.46847;2;1.003994336854793;;
1068.63;42.75;96.46866;2;1.00394032091156;;
1059.51404;43.0;96.46888;2;1.0038777761351863;;
1050.24902;43.25;96.46907;2;1.0038237601919533;;
1040.82495;43.5;96.46919;2;1.0037896448593868;;
1031.26099;43.75;96.46937;2;1.0037384718605353;;
1021.52698;44.0;96.4696;2;1.0036730841397803;;
1011.63898;44.25;96.4699;2;1.0035877958083623;;
1001.62299;44.5;96.47006;2;1.0035423086982698;;
991.53699;44.75;96.47021;2;1.003499664532563;;
981.37299;45.0;96.4704;2;1.0034456485893297;;
971.16302;45.25;96.47058;2;1.0033944755904782;;
960.92401;45.5;96.47074;2;1.003348988480386;;
950.66699;45.75;96.47085;2;1.003317716092201;;
940.44;46.0;96.47104;2;1.003263700148968;;
930.203;46.25;96.47104;2;1.003263700148968;;
920.03601;46.5;96.47081;2;1.0033290878697232;;
909.90302;46.75;96.47089;2;1.0033063443146788;;
899.83398;47.0;96.471;2;1.00327507192649;;
889.85101;47.25;96.47108;2;1.0032523283714458;;
879.92499;47.5;96.47119;2;1.003221055983257;;
870.08502;47.75;96.47127;2;1.0031983124282127;;
860.29303;48.0;96.47142;2;1.0031556682625058;;
850.55902;48.25;96.47146;2;1.0031442964849837;;
840.87299;48.5;96.47157;2;1.003113024096795;;
831.237;48.75;96.47161;2;1.0031016523192728;;
821.66101;49.0;96.47168;2;1.003081751708606;;
812.12;49.25;96.47176;2;1.0030590081535617;;
802.62903;49.5;96.47183;2;1.003039107542899;;
793.15302;49.75;96.47198;2;1.0029964633771882;;
783.716;50.0;96.47214;2;1.0029509762670996;;
774.30103;50.25;96.47229;2;1.0029083321013887;;
764.89398;50.5;96.47251;2;1.0028457873250152;;
755.50702;50.75;96.47263;2;1.0028116719924487;;
746.211;51.0;96.47286;2;1.0027462842716937;;
736.92499;51.25;96.47304;2;1.002695111272842;;
727.73297;51.5;96.4732;2;1.0026496241627496;;
718.62903;51.75;96.47336;2;1.002604137052661;;
709.65601;52.0;96.47351;2;1.0025614928869502;;
700.802;52.25;96.47366;2;1.0025188487212433;;
692.08398;52.5;96.47389;2;1.002453461000488;;
683.51501;52.75;96.47411;2;1.0023909162241145;;
675.086;53.0;96.4743;2;1.0023369002808813;;
666.80603;53.25;96.47449;2;1.0022828843376481;;
658.664;53.5;96.47468;2;1.0022288683944152;;
650.64801;53.75;96.47483;2;1.0021862242287083;;
642.745;54.0;96.47506;2;1.002120836507953;;
634.96698;54.25;96.47525;2;1.00206682056472;;
627.31299;54.5;96.47551;2;1.0019929040108242;;
619.755;54.75;96.47574;2;1.001927516290069;;
612.30298;55.0;96.47589;2;1.001884872124358;;
604.97302;55.25;96.47631;2;1.0017654684603738;;
597.758;55.5;96.47653;2;1.0017029236840003;;
590.62;55.75;96.47676;2;1.001637535963245;;
583.59601;56.0;96.4771;2;1.001540875854305;;
576.68799;56.25;96.47737;2;1.0014641163560278;;
569.86499;56.5;96.47756;2;1.0014101004127947;;
563.14899;56.75;96.47775;2;1.0013560844695615;;
556.54303;57.0;96.47809;2;1.0012594243606217;;
550.03601;57.25;96.47828;2;1.0012054084173885;;
543.64502;57.5;96.47858;2;1.0011201200859707;;
537.354;57.75;96.4788;2;1.001057575309593;;
531.138;58.0;96.47907;2;1.0009808158113198;;
525.00897;58.25;96.47941;2;1.0008841557023758;;
518.953;58.5;96.47967;2;1.0008102391484799;;
512.974;58.75;96.4799;2;1.0007448514277246;;
507.04001;59.0;96.48021;2;1.0006567201519254;;
501.20001;59.25;96.48044;2;1.0005913324311702;;
495.42001;59.5;96.48067;2;1.000525944710415;;
489.70499;59.75;96.48093;2;1.0004520281565192;;
484.05899;60.0;96.4812;2;1.000375268658242;;
478.474;60.25;96.4815;2;1.000289980326824;;
472.95801;60.5;96.48173;2;1.0002245926060689;;
467.52301;60.75;96.48195;2;1.000162047829695;;
462.13901;61.0;96.48214;2;1.0001080318864621;;
456.82001;61.25;96.48233;2;1.000054015943229;;
451.55301;61.5;96.48252;2;1.0;;inf
