##Temp./Â°C;Time/min;Mass/%;Segment;Alpha;F_alpha;G_alpha
120.524;0.0;100.0;1;0.0;-0.0;-0.0
129.022;0.5;99.98645;1;0.004706838637064561;0.1367280796626935;0.06868734005740615
137.681;1.0;99.97589;1;0.008375046460489732;0.18187941697217058;0.09170776528110221
146.403;1.5;99.96781;1;0.011181781234476983;0.20971123215903242;0.10604134722600664
155.10699;2.0;99.96158;1;0.013345884903032935;0.22873137915115635;0.1159126464134176
163.771;2.5;99.95623;1;0.015204304586300166;0.24379273448955374;0.12377833068570614
172.30701;3.0;99.9517;1;0.01677788237419112;0.2557906747836718;0.13007776686377373
180.67599;3.5;99.9474;1;0.01827156548410905;0.26662957828494854;0.13579599454936267
188.91;4.0;99.94332;1;0.019688827597706036;0.2764771921586742;0.14101501642644507
196.935;4.5;99.93932;1;0.021078300258096302;0.2857621136172909;0.14595759481715093
204.716;5.0;99.93562;1;0.022363562468953966;0.29405522157339603;0.15039088677791737
212.235;5.5;99.93204;1;0.023607140500001553;0.3018317836276047;0.15456472294470175
219.492;6.0;99.92868;1;0.024774297534728193;0.3089255512487835;0.15838669472505237
226.481;6.5;99.92521;1;0.025979665067612834;0.31605780398600775;0.16224394535251016
233.21201;7.0;99.92208;1;0.02706692742437139;0.3223330868131117;0.16565018494016498
239.69099;7.5;99.91891;1;0.02816808450772837;0.3285448279712506;0.16903377154722765
245.929;8.0;99.91563;1;0.02930745208924829;0.33482840478790404;0.17246882419596424
251.942;8.5;99.91261;1;0.030356503947838967;0.34049155214299165;0.1755756386389845
257.746;9.0;99.90943;1;0.03146113471284802;0.3463344800136474;0.1787922469745013
263.35999;9.5;99.90616;1;0.032597028612715864;0.3522204993276214;0.18204435470284266
268.79001;10.0;99.90329;1;0.03359397524654518;0.35728916930577287;0.18485458500578103
274.069;10.5;99.90034;1;0.03461871133358121;0.3624084966322909;0.18770225862411488
279.207;11.0;99.89744;1;0.03562607901236181;0.3673552033583346;0.1904630534710631
284.24301;11.5;99.89465;1;0.0365952361929844;0.37203713342773204;0.19308454110065862
289.16501;12.0;99.89204;1;0.03750186710388941;0.3763510603034453;0.19550742356820114
294.017;12.5;99.88944;1;0.03840502433314234;0.380587290371982;0.19789375984834368
298.806;13.0;99.88687;1;0.03929776051743905;0.3847166273205976;0.20022677761624033
303.55099;13.5;99.8845;1;0.04012102306871897;0.3884750975320223;0.20235629015127068
308.263;14.0;99.88212;1;0.040947759301650954;0.3922030340311469;0.20447428064270934
312.94199;14.5;99.88023;1;0.04160428513368561;0.3951312123979373;0.2061419966036961
317.61401;15.0;99.87827;1;0.042285126737274914;0.39813842936192323;0.2078585393612781
322.289;15.5;99.87631;1;0.04296596834086422;0.4011163678231212;0.20956222796368945
326.94501;16.0;99.87442;1;0.04362249417289888;0.40396083169809116;0.21119318952861346
331.62799;16.5;99.87261;1;0.044251230551726826;0.406660460806158;0.2127444333728578
336.284;17.0;99.8708;1;0.044879966930549825;0.4093366666218421;0.21428545755990744
340.98999;17.5;99.86895;1;0.045522598035981125;0.4120482873483471;0.21585020583016387
345.69601;18.0;99.86695;1;0.04621733436617379;0.41495332836505633;0.2175303364783336
350.423;18.5;99.8648;1;0.04696417592113276;0.4180462509532595;0.21932347157952406
355.15201;19.0;99.86273;1;0.04768322802288501;0.4209953484686481;0.22103745353272272
359.89301;19.5;99.86042;1;0.04848564848425741;0.4242538170165584;0.22293611039115221
364.66699;20.0;99.8579;1;0.049361016260303626;0.4277702450488608;0.22499090210148204
369.46301;20.5;99.85521;1;0.05029543662441535;0.43148091079957734;0.22716586159486388
374.27399;21.0;99.85223;1;0.05133059375640267;0.4355411445710362;0.2295537000057947
379.12;21.5;99.84929;1;0.05235185616179156;0.4394962913318778;0.23188790807514778
384.005;22.0;99.84589;1;0.05353290792312156;0.44400939959044033;0.23456145665673864
388.923;22.5;99.84242;1;0.05473827545600621;0.44855007577049477;0.23726237089885396
393.88199;23.0;99.83804;1;0.056259748019130855;0.45419035813291014;0.24063313882161144
398.867;23.5;99.83431;1;0.057555431274944745;0.4589160234595463;0.24347109564245817
403.888;24.0;99.83004;1;0.05903869333991139;0.46424120407695446;0.2466845346302089
408.90601;24.5;99.82544;1;0.06063658689935699;0.46988025818588336;0.25010568414353423
413.95499;25.0;99.8205;1;0.06235258563493855;0.47582734685290884;0.2537346872412167
419.01401;25.5;99.81499;1;0.06426658422462415;0.4823327920583727;0.25772981060994693
424.064;26.0;99.80902;1;0.06634037217025086;0.48923526213887875;0.26199872392259516
429.10199;26.5;99.80276;1;0.0685148968837581;0.4963166664568718;0.2664114889204704
434.12701;27.0;99.79559;1;0.07100552662750534;0.5042394733822381;0.271389920949538
439.13699;27.5;99.78779;1;0.07371499831526414;0.5126410159287619;0.2767188365332298
444.103;28.0;99.77892;1;0.07679615393967638;0.521933495559846;0.28267510896274045
449.07001;28.5;99.76903;1;0.08023162509248664;0.5319837458857682;0.28919441046190647
454.01999;29.0;99.75786;1;0.08411172749662416;0.5429630868554575;0.2964133853201271
458.953;29.5;99.74522;1;0.08850246110344871;0.5549407367693452;0.3044115387525622
463.862;30.0;99.73107;1;0.09341772063957354;0.5678230651946186;0.31316686754301276
468.759;30.5;99.71507;1;0.09897561128112967;0.5817658572465102;0.32283579919168404
473.66299;31.0;99.69711;1;0.10521434352627511;0.596684725463163;0.33342327357741036
478.55301;31.5;99.67757;1;0.11200191747227052;0.6121024188969165;0.3446530071070297
483.439;32.0;99.65583;1;0.11955370138148527;0.6283360821607438;0.35682816950145024
488.332;32.5;99.63239;1;0.1276960111713601;0.6448381311877406;0.36961778201521905
493.237;33.0;99.60673;1;0.13660947828775347;0.6618059814708759;0.38325992979307033
498.13901;33.5;99.579;1;0.14624199750589909;0.678955032641404;0.3976273315494312
503.06;34.0;99.54994;1;0.1563365163836175;0.6957059640266916;0.4123124785753037
508.008;34.5;99.51893;1;0.16710840318328304;0.7123084128303985;0.4276117177510355
512.95801;35.0;99.48671;1;0.17830060546271131;0.7282698155188371;0.4431485652541686
517.92798;35.5;99.45353;1;0.18982628118063502;0.7434315558285596;0.4588099678868464
522.91699;36.0;99.41984;1;0.2015291146627602;0.7575915554036136;0.4744014899701944
527.93201;36.5;99.38693;1;0.2129610009761026;0.7702976735865823;0.4893643609414031
532.96002;37.0;99.3546;1;0.2241914137536938;0.7817586519340143;0.5038347511185053
538.013;37.5;99.32347;1;0.23500498473316941;0.7918876651669378;0.5175770098911867
543.05701;38.0;99.29445;1;0.24508560888428943;0.8005665846218225;0.5302366692457944
548.13202;38.5;99.26736;1;0.2544958124767714;0.80803097666761;0.5419359073971889
553.20398;39.0;99.2423;1;0.26320085869410453;0.8144080043145354;0.5526662279159873
558.28497;39.5;99.21947;1;0.2711312739032719;0.8197899109127809;0.5623714405356354
563.35303;40.0;99.198;1;0.2785892684079103;0.8244896349583067;0.5714425907823211
568.422;40.5;99.17831;1;0.28542894757867204;0.828499259105054;0.5797178994990628
573.46899;41.0;99.16024;1;0.29170589032197547;0.8319315945272174;0.5872783517184661
578.49799;41.5;99.14344;1;0.29754167549560867;0.8349144402657745;0.594280408631242
583.50702;42.0;99.12755;1;0.30306135563900183;0.8375542911047603;0.6008809368525463
588.49402;42.5;99.11228;1;0.3083656675200355;0.839927618126854;0.6072049771699161
593.48999;43.0;99.09755;1;0.3134824005919165;0.8420674066064767;0.6132890164305391
598.46997;43.5;99.0831;1;0.318501870577569;0.8440257598060199;0.619242902780475
603.42603;44.0;99.06899;1;0.3234032353870905;0.8458052825376693;0.6250438420449486
608.396;44.5;99.05507;1;0.32823860024524226;0.8474339272173927;0.6307551517002676
613.35901;45.0;99.04141;1;0.33298364938046976;0.8489110775779436;0.6363495263567888
618.31403;45.5;99.0276;1;0.33778080374045866;0.8502839456559846;0.641995845528718
623.26898;46.0;99.01371;1;0.3426057475536592;0.8515439265989149;0.6476660873061264
628.22699;46.5;98.99986;1;0.3474167966402563;0.8526809392785237;0.6533120488610508
633.18201;47.0;98.9859;1;0.3522660562250115;0.8537076837543405;0.6589956354448082
638.15302;47.5;98.97191;1;0.3571257368547229;0.8546177319704956;0.664684978824054
643.12201;48.0;98.95756;1;0.36211047002386454;0.8554288022264915;0.6705148478126727
648.08899;48.5;98.94311;1;0.367129940009517;0.8561215362580459;0.676380184797271
653.05701;49.0;98.92878;1;0.37210772581535945;0.8566868539838262;0.6821925425792907
658.01703;49.5;98.91403;1;0.3772314062505445;0.8571434248374942;0.6881716848283533
663.04303;50.0;98.89919;1;0.3823863498205835;0.857475697934199;0.694184542136579
668.06598;50.5;98.88429;1;0.38756213548053486;0.8576822547002821;0.7002198136240664
673.12;51.0;98.86885;1;0.3929254999496341;0.857763195141947;0.7064727599913871
678.16101;51.5;98.85323;1;0.3983513906884509;0.8577084592040706;0.712798505580794
683.19598;52.0;98.83746;1;0.403829386652034;0.8575150231940039;0.7191859209382896
688.19299;52.5;98.82138;1;0.4094150667467919;0.8571760552391787;0.7257009169853578
693.20099;53.0;98.80543;1;0.4149555889800926;0.8566996254805733;0.7321663187817569
698.18103;53.5;98.78908;1;0.42063505847943183;0.8560674918099135;0.7387981481612674
703.15802;54.0;98.7727;1;0.42632494902372237;0.8552894044105211;0.7454476213973342
708.117;54.5;98.75626;1;0.4320356816579204;0.854363849695215;0.7521281021571495
713.08197;55.0;98.73943;1;0.4378818878765049;0.8532673635481783;0.7589751558838927
718.03497;55.5;98.72249;1;0.4437663045932523;0.8520125911924287;0.7658764636412324
723.00299;56.0;98.70584;1;0.4495499845421192;0.8506325668624661;0.7726701271457722
727.96802;56.5;98.68879;1;0.45547261175702464;0.8490696242034892;0.779639043449384
732.93298;57.0;98.67192;1;0.46133271270221243;0.847374957837306;0.7865476313664261
737.91199;57.5;98.65525;1;0.4671233400143835;0.8455564123327265;0.7933884853913004
742.88599;58.0;98.6386;1;0.4729070199632504;0.8435979890878453;0.8002364108786163
747.84601;58.5;98.62211;1;0.47863512100569894;0.8415191825601602;0.8070347816517947
752.82599;59.0;98.60577;1;0.48431111682338607;0.8393233097695109;0.8137884460484462
757.79498;59.5;98.58933;1;0.4900218494575841;0.8369780276091235;0.820601850019367
762.76703;60.0;98.57336;1;0.49556931905418894;0.8345697611125722;0.8272392943543284
767.74402;60.5;98.55721;1;0.5011793149205064;0.8320045498059654;0.8339715800612544
772.71899;61.0;98.54152;1;0.5066295214308779;0.8293878586841373;0.8405325153316187
777.70801;61.5;98.52608;1;0.511992885899982;0.8266934398445253;0.8470096192850715
782.68597;62.0;98.51076;1;0.5173145661892663;0.8239032385405127;0.853457739584052
787.66602;62.5;98.49544;1;0.5226362464785554;0.8209970974960776;0.8599281904414597
792.651;63.0;98.48035;1;0.5278780320898715;0.8180215361679296;0.866324373539472
797.646;63.5;98.46566;1;0.5329808704351491;0.8150173254457226;0.8725738132023864
802.66199;64.0;98.45114;1;0.5380246561923612;0.8119438492496277;0.8787740083242535
807.66302;64.5;98.43695;1;0.5429538104550894;0.8088404780687964;0.8848563849467533
812.65997;65.0;98.42288;1;0.5478412805380025;0.8056661516393245;0.8909107764171273
817.67401;65.5;98.40926;1;0.5525724349466267;0.8025012811822445;0.89679463656482
822.664;66.0;98.39574;1;0.5572688525387399;0.799270172959396;0.9026586197318924
827.67401;66.5;98.38265;1;0.5618159018198634;0.7960569715468346;0.9083590377343831
832.71198;67.0;98.36952;1;0.5663768458275902;0.7927501447763061;0.9141003393710687
837.74103;67.5;98.35646;1;0.5709134740637575;0.789377730924283;0.9198351418771603
842.76599;68.0;98.34375;1;0.5753285234421416;0.7860160396811927;0.9254401143822802
847.79602;68.5;98.33077;1;0.5798373622251021;0.7825018588299868;0.931189244924262
852.83301;69.0;98.31802;1;0.5842663063300896;0.7789701888384066;0.9368619872519923
857.84198;69.5;98.30541;1;0.5886466188919678;0.775399541634143;0.9424980773775417
862.83698;70.0;98.2927;1;0.593061668270352;0.7717223088211135;0.9482054756810326
867.828;70.5;98.28002;1;0.5974662966037848;0.7679754218690308;0.9539268580364191
872.81097;71.0;98.2673;1;0.6018848196638161;0.7641380573351755;0.9596947002748146
877.79102;71.5;98.25473;1;0.6062512374990909;0.7602684933924586;0.9654233432552101
882.78699;72.0;98.24187;1;0.6107183921022364;0.7562299056310876;0.9713147118803711
887.77502;72.5;98.22862;1;0.6153210202897733;0.7519843828111366;0.9774180842654776
892.78601;73.0;98.215;1;0.6200521746983975;0.7475308446900579;0.983728284398875
897.79901;73.5;98.2013;1;0.6248111185602283;0.742959514288474;0.990113981306426
902.82703;74.0;98.18723;1;0.6296985886431464;0.7381688978907283;0.9967135895944056
907.85999;74.5;98.17301;1;0.634638163950826;0.7332283502077619;1.0034276679476133
912.89398;75.0;98.15878;1;0.6395812129401623;0.7281846180427133;1.0101923709124216
917.93201;75.5;98.14372;1;0.6448125775065223;0.7227377824965571;1.0174033999047767
922.95697;76.0;98.12848;1;0.6501064683426048;0.7171115062360014;1.0247567350547286
927.99402;76.5;98.11282;1;0.6555462538080249;0.7112099784331619;1.0323737022688408
933.034;77.0;98.09648;1;0.6612222496257121;0.7049218495861619;1.040389826084138
938.05701;77.5;98.07991;1;0.6669781401213722;0.698408739746262;1.0485929362126591
943.065;78.0;98.06313;1;0.6728069779317013;0.6916724285834641;1.056979186492375
948.08002;78.5;98.04596;1;0.6787712893264217;0.6846323373537411;1.0656462430119473
953.08197;79.0;98.02837;1;0.6848814953504799;0.677264814395483;1.074619237528986
958.065;79.5;98.01053;1;0.6910785434158103;0.6696311981480993;1.0838211200224712
963.04999;80.0;97.99226;1;0.6974249597921355;0.6616440901792102;1.0933553701664729
968.03998;80.5;97.97407;1;0.7037435867152539;0.6535204121281155;1.1029641601378366
973.02502;81.0;97.95554;1;0.7101803188145034;0.6450676066850675;1.1128775037748342
978.02301;81.5;97.93717;1;0.7165614720073394;0.6365097966297564;1.1228357011616965
983.026;82.0;97.91891;1;0.7229044147020126;0.6278261410351471;1.1328692594650789
988.04498;82.5;97.90087;1;0.7291709364003647;0.6190722129747848;1.1429205653680412
993.05701;83.0;97.88287;1;0.7354235633721136;0.6101628451975161;1.1530937013406066
998.10101;83.5;97.86537;1;0.7415025062613129;0.6013319094253571;1.16312909020549
1003.13202;84.0;97.84778;1;0.7476127122853711;0.5922859149692724;1.1733671698214898
1008.17499;84.5;97.8308;1;0.7535110237287219;0.5833906188272515;1.1834010340997765
1013.19501;85.0;97.81401;1;0.759343335220703;0.574435710934464;1.1934755920042173
1018.229;85.5;97.7977;1;0.765008909993434;0.5655836087139214;1.2034150075607506
1023.25098;86.0;97.78179;1;0.7705355375001313;0.5568014846719694;1.2132630007408838
1028.27295;86.5;97.76624;1;0.7759371124673934;0.5480760551676895;1.2230406855930818
1033.28503;87.0;97.75111;1;0.781192792805313;0.5394499474782668;1.2327060758064587
1038.297;87.5;97.73627;1;0.7863477363753518;0.53085696402888;1.24233873075529
1043.30701;88.0;97.72186;1;0.791353311634401;0.5223861338075952;1.2518438176508453
1048.32605;88.5;97.70775;1;0.7962546764439224;0.5139690498685631;1.261302691266682
1053.32996;89.0;97.69406;1;0.8010101466241062;0.5056850873922379;1.2706303331883806
1058.34204;89.5;97.68076;1;0.8056301432198936;0.49752494346593396;1.279840793495031
1063.35999;90.0;97.66775;1;0.8101494030478104;0.4894343746957004;1.2889987773358316
1068.375;90.5;97.65504;1;0.8145644524261945;0.4814255258003752;1.2980939525868473
1073.39502;91.0;97.6424;1;0.818955186033024;0.47335664040612163;1.3072913552013303
1078.41003;91.5;97.63017;1;0.8232034986921579;0.46544927418025117;1.316341869712117
1083.43396;92.0;97.61771;1;0.8275317060292698;0.4572904188787523;1.3257231469929185
1088.44397;92.5;97.60518;1;0.8318842291379364;0.44897958817752787;1.335328583021246
1093.43994;93.0;97.59262;1;0.8362471732915592;0.4405404095822319;1.3451383357387985
1098.45898;93.5;97.58021;1;0.8405580122204156;0.4320936863015576;1.3550185002048896
1103.45105;94.0;97.56783;1;0.8448584301043158;0.42355833290720335;1.365070410180844
1108.45605;94.5;97.55549;1;0.8491449532616128;0.41494033052945145;1.3752948260625342
1113.45398;95.0;97.54296;1;0.8534974763702843;0.4060750411348037;1.3858977684273754
1118.46997;95.5;97.53096;1;0.8576658943514501;0.39747452085851703;1.3962729419186348
1123.46704;96.0;97.51912;1;0.8617787334261976;0.3888810072691234;1.4067336268456299
1128.48499;96.5;97.50746;1;0.8658290462312325;0.38031163500583465;1.417265154354012
1133.49304;97.0;97.49675;1;0.8695493592794189;0.3723455593523369;1.4271511327793431
1138.50806;97.5;97.4867;1;0.8730404093386476;0.36478620520776445;1.4366232724425774
1143.51196;98.0;97.47783;1;0.8761215649630598;0.35804550085128733;1.4451486279452885
1148.52502;98.5;97.47044;1;0.8786886157031281;0.35237936668776687;1.4523755075839702
1153.54602;99.0;97.46482;1;0.8806408247909716;0.3480394067251448;1.4579499486136651
1158.55298;99.5;97.46127;1;0.8818739817770679;0.3452840504760304;1.4615071923629754
1163.56702;100.0;97.4598;1;0.8823846129797599;0.344139922005384;1.46298852014219
1168.58997;100.5;97.4598;1;0.8823846129797599;0.344139922005384;1.46298852014219
1173.59705;101.0;97.46203;1;0.8816099819715942;0.3458748414194495;1.460743258508764
1178.61597;101.5;97.46667;1;0.8799981936855452;0.34947101357687516;1.4561073050063735
1183.62598;102.0;97.47293;1;0.8778236689720331;0.3542936601022549;1.4499275642069944
1188.61804;102.5;97.48037;1;0.8752392498237144;0.3599824274332941;1.4426910183076116
1193.60706;103.0;97.48814;1;0.8725401991809069;0.3658743963369378;1.4352540722083522
1198.60901;103.5;97.49647;1;0.8696466223656474;0.3721360613734044;1.4274124235478716
1203.60706;104.0;97.50531;1;0.8665758877861914;0.3787198157180655;1.4192330360466523
1208.61096;104.5;97.51402;1;0.8635503110681926;0.3851459492551808;1.411311202943316
1213.62903;105.0;97.52273;1;0.8605247343501987;0.3915126109542423;1.4035198611389061
1218.64294;105.5;97.53126;1;0.8575616839019174;0.39769086426976413;1.396010831790217
1223.64905;106.0;97.53972;1;0.8546229492251959;0.4037636121106824;1.3886772704452892
1228.65796;106.5;97.54791;1;0.8517780039530506;0.4095912213201027;1.3816816405250825
1233.66699;107.0;97.55572;1;0.8490650585836447;0.4151019757920345;1.375102318577685
1238.66895;107.5;97.56312;1;0.8464945341619244;0.42028205447592626;1.3689481745205692
1243.68103;108.0;97.57032;1;0.8439934833732259;0.4252838936803551;1.3630324645277256
1248.68005;108.5;97.57647;1;0.8418571691578767;0.4295267191340711;1.358034116522408
1253.68103;109.0;97.58202;1;0.8399292758415877;0.43333241632526803;1.35356548989066
1258.68799;109.5;97.58677;1;0.8382792770573758;0.43657219673989744;1.3497719673649553
1263.68799;110.0;97.591;1;0.8368099097190174;0.43944392316732245;1.3464173051521777
1268.69104;110.5;97.59383;1;0.8358268578117914;0.44135819286423666;1.3441851297402299
1273.69202;111.0;97.5953;1;0.8353162266090994;0.4423503232095701;1.3430294743113158
1278.69397;111.5;97.5956;1;0.8352120161595669;0.4425526136998574;1.3427939446373354
1283.72205;112.0;97.59266;1;0.8362332785649558;0.44056746009240283;1.3451067965207686
1288.71997;112.5;97.58549;1;0.838723908308703;0.4357007298282317;1.3507914448417393
1293.72705;113.0;97.57454;1;0.8425275897165146;0.428198149778901;1.3595973701299457
1298.70801;113.5;97.55814;1;0.8482244276241093;0.4168004104392142;1.3730813329003868
1303.66699;114.0;97.53459;1;0.856404947912147;0.4000876747527646;1.3931109357026688
1308.62402;114.5;97.50188;1;0.8677673605924726;0.3761726913101401;1.4223897102696959
1313.59595;115.0;97.45294;1;0.8847675585923274;0.338775849207774;1.4699673332843963
1318.56799;115.5;97.39569;1;0.9046543860441375;0.29233947583260583;1.5330515149230461
1323.55603;116.0;97.32509;1;0.9291785784999953;0.2304731351576239;1.6271428211703476
1328.53796;116.5;97.24276;1;0.9577773995324427;0.15022703094975512;1.7789883769142238
1329.93553;117.0;97.12121;2;1.0;;inf
