##Temp./Â°C;Time/min;Mass/%;Segment;Alpha;F_alpha;G_alpha
118.782;0.0;100.0;1;0.0;2.0;0.0
129.61099;0.25;99.99258;1;0.005757248935061195;1.9942344406462733;0.002882779676863345
141.129;0.5;99.98593;1;0.010917047508945324;1.9890529932518688;0.0054735033740656025
153.289;0.75;99.98035;1;0.015246622853639128;1.9846948149741923;0.007652592512903844
166.007;1.0;99.97545;1;0.01904857969755433;1.9808598338120198;0.0095700830939901
179.242;1.25;99.97093;1;0.02255569090867111;1.9773156643200183;0.011342167839990869
192.946;1.5;99.96651;1;0.025985211163787148;1.973843751502345;0.013078124248827483
207.041;1.75;99.96176;1;0.029670781573701233;1.9701058026677642;0.014947098666117875
221.457;2.0;99.95663;1;0.033651197616402714;1.9660608356646518;0.01696958216767408
236.08299;2.25;99.95093;1;0.038073882108301815;1.9615566450058977;0.01922167749705117
250.89101;2.5;99.94494;1;0.04272158037258986;1.956812121413203;0.02159393929339848
265.806;2.75;99.9386;1;0.04764084698288049;1.9517778080684487;0.024111095965775653
280.711;3.0;99.93169;1;0.05300238204234671;1.9462760523190468;0.026861973840476616
295.526;3.25;99.9248;1;0.058348398910619395;1.9407746918067337;0.029612654096633162
310.22198;3.5;99.91794;1;0.06367113849209627;1.935281748488218;0.03235912575589095
324.71701;3.75;99.91129;1;0.0688309370659804;1.9299420332580144;0.035028983370992806
338.905;4.0;99.90537;1;0.0734243216610635;1.9251760213953804;0.03741198930230982
352.73001;4.25;99.90006;1;0.07754440142457293;1.9208910417568479;0.03955447912157606
366.133;4.5;99.89501;1;0.08146274470247823;1.9168069858987073;0.041596507050646325
379.08401;4.75;99.89017;1;0.08521814697279077;1.9128845788778885;0.04355771056105573
391.534;5.0;99.88467;1;0.0894856495526884;1.908417512440411;0.04579124377979449
403.48001;5.25;99.87901;1;0.09387729766218941;1.9038095517543876;0.0480952241228062
414.897;5.5;99.87305;1;0.09850171863967061;1.8989452665733464;0.050527366713326805
425.811;5.75;99.86641;1;0.10365375811795245;1.8935112800108138;0.05324435999459309
436.20999;6.0;99.85895;1;0.10944204343542277;1.8873875665210653;0.05630621673946734
446.10101;6.25;99.85038;1;0.11609158836445944;1.8803280688598365;0.05983596557008175
455.53201;6.5;99.84051;1;0.12374981572148376;1.8721647195463504;0.06391764022682478
464.54901;6.75;99.82889;1;0.13276588480846596;1.8625081102551302;0.0687459448724349
473.14999;7.0;99.81493;1;0.14359758226580827;1.850840260783401;0.07457986960829954
481.38901;7.25;99.79883;1;0.1560897261815202;1.8372917828352466;0.08135410858237668
489.30801;7.5;99.7802;1;0.17054492128398038;1.8214884888091054;0.0892557555954473
496.95099;7.75;99.7587;1;0.18722697682357817;1.8030785043102497;0.09846074784487513
504.354;8.0;99.72951;1;0.20987577687944356;1.7777786398993058;0.11111068005034708
511.552;8.25;99.70556;1;0.22845881084100444;1.7567483475546468;0.12162582622267659
518.60303;8.5;99.67761;1;0.2501454830424959;1.7318828100740582;0.1340585949629709
525.52899;8.75;99.64744;1;0.2735546744671421;1.7046352401999179;0.14768237990004107
532.41498;9.0;99.61624;1;0.29776305273856957;1.675991583823058;0.16200420808847105
539.242;9.25;99.58359;1;0.3230964998719747;1.6454829079975584;0.17725854600122082
546.04999;9.5;99.55066;1;0.3486472016821775;1.6141286173261689;0.19293569133691557
552.91699;9.75;99.51796;1;0.37401944429357203;1.582378659747948;0.20881067012602605
559.81097;10.0;99.48571;1;0.3990425276029852;1.5504289372906;0.22478553135470003
566.76001;10.25;99.45584;1;0.42221894615964023;1.5202382100715135;0.23988089496424325
573.81702;10.5;99.43035;1;0.44199688084356625;1.4939921273640417;0.25300393631797913
580.95203;10.75;99.40402;1;0.46242657955788535;1.4663879710937548;0.2668060144531226
588.20599;11.0;99.38426;1;0.4777585524631275;1.4453254962628626;0.2773372518685687
595.56201;11.25;99.36657;1;0.49148439257920495;1.4262056056835495;0.28689719715822526
602.99298;11.5;99.35179;1;0.5029523358757357;1.41003214732752;0.29498392633624004
610.53101;11.75;99.3396;1;0.5124106734119045;1.3965519347136297;0.30172403264318515
618.13702;12.0;99.32953;1;0.5202240826809194;1.3853171728078457;0.30734141359607714
625.77301;12.25;99.32101;1;0.5268348321319667;1.3757400450201822;0.3121299774899089
633.47803;12.5;99.31366;1;0.5325377673978339;1.3674241954889728;0.3162879022555136
641.17999;12.75;99.30743;1;0.5373716839565216;1.3603357174513626;0.3198321412743187
648.89398;13.0;99.30208;1;0.541522800102418;1.354218889098187;0.3228905554509065
656.60797;13.25;99.29736;1;0.5451850932255363;1.3487993279572223;0.3256003360213888
664.32202;13.5;99.29303;1;0.5485447816202539;1.3438083470193898;0.3280958264903051
672.11798;13.75;99.28895;1;0.5517104926249806;1.3390885069703486;0.3304557465148257
679.88397;14.0;99.28495;1;0.5548141308649112;1.334445006937474;0.332777496531263
687.646;14.25;99.28115;1;0.5577625871928402;1.330018665744447;0.3349906671277765
695.34998;14.5;99.27775;1;0.5604006796967773;1.3260457311921376;0.3369771344039312
703.00702;14.75;99.27413;1;0.5632094723039095;1.321802599023153;0.3390987004884235
710.60199;15.0;99.27054;1;0.5659949876242458;1.3175811358330145;0.34120943208349275
718.14001;15.25;99.26704;1;0.5687106710841836;1.3134524413404793;0.34327377932976033
725.58698;15.5;99.26361;1;0.5713720408749166;1.3093936904156571;0.34530315479217144
732.97998;15.75;99.26033;1;0.5739170242316594;1.3055006331187138;0.3472496834406431
740.302;16.0;99.25705;1;0.5764620075883912;1.3015959317877555;0.34920203410612227
747.57898;16.25;99.2535;1;0.5792164865263294;1.2973565639001032;0.3513217180499484
754.82001;16.5;99.24999;1;0.5819399290818695;1.2931512996059362;0.3534243501970319
762.01898;16.75;99.2466;1;0.5845702624902044;1.2890767820572917;0.35546160897135415
769.203;17.0;99.24339;1;0.5870609321777424;1.285206703720857;0.3573966481395715
776.36798;17.25;99.24019;1;0.589543842769689;1.281337047353757;0.35933147632312146
783.52197;17.5;99.2371;1;0.5919414033100325;1.2775892871967383;0.3612053564016309
790.67499;17.75;99.234;1;0.5943467229459785;1.2738183183704364;0.3630908408147818
797.85699;18.0;99.23075;1;0.5968684290159145;1.269852859167684;0.36507357041615796
805.047;18.25;99.22751;1;0.5993823759902592;1.2658872366996055;0.36705638165019727
812.27698;18.5;99.22438;1;0.6018109729130009;1.2620444161549926;0.3689777919225037
819.521;18.75;99.22125;1;0.6042395698357427;1.258189858748285;0.37090507062585754
826.80103;19.0;99.21805;1;0.6067224804276783;1.2542368509533144;0.3728815745233428
834.12701;19.25;99.21496;1;0.6091200409680219;1.2504078679086728;0.3747960660456636
841.487;19.5;99.21193;1;0.6114710469347738;1.2466418139389135;0.37667909303054325
848.85303;19.75;99.20896;1;0.6137754983279122;1.242939261061598;0.37853036946920104
856.24298;20.0;99.2062;1;0.6159170087134688;1.2394885901637518;0.3802557049181241
863.66803;20.25;99.20323;1;0.6182214601066072;1.2357646052438835;0.38211769737805823
871.10101;20.5;99.2007;1;0.6201845112933664;1.232583447408951;0.3837082762955245
878.534;20.75;99.19836;1;0.6220001396637265;1.2296338647520628;0.3851830676239686
885.98798;21.0;99.19569;1;0.6240718181888736;1.2262596491952695;0.38687017540236524
893.46198;21.25;99.19296;1;0.6261900512876234;1.2227999815380708;0.3886000092309646
900.93701;21.5;99.1904;1;0.6281763797611785;1.2195468342606963;0.39022658286965184
908.41302;21.75;99.18727;1;0.6306049766839202;1.2155575236344511;0.39222123818277443
915.90503;22.0;99.18407;1;0.6330878872758559;1.2114654146514363;0.39426729267428184
923.39099;22.25;99.18075;1;0.6356639070149968;1.2072051904875214;0.3963974047562393
930.88397;22.5;99.17694;1;0.6386201224385281;1.202297596373663;0.39885120181316847
938.39301;22.75;99.17309;1;0.6416073742444576;1.1973180458934751;0.40134097705326244
945.88599;23.0;99.1689;1;0.6448584353007873;1.1918751020123084;0.4040624489938458
953.396;23.25;99.16453;1;0.648249160077903;1.1861717243672554;0.4069141378163723
960.88;23.5;99.15978;1;0.651934730487817;1.1799411332980692;0.4100294333509654
968.32599;23.75;99.15476;1;0.6558297964789265;1.1733204225974652;0.4133397887012674
975.74298;24.0;99.14982;1;0.6596627897052287;1.1667685465331523;0.41661572673342384
983.11298;24.25;99.14473;1;0.6636121693655432;1.1599790181455125;0.42001049092724374
990.474;24.5;99.1396;1;0.6675925854082447;1.1530956848271616;0.4234521575864192
997.83099;24.75;99.13462;1;0.6714566150169561;1.1463740837668024;0.4268129581165988
1005.203;25.0;99.12968;1;0.6752896082432693;1.1396673054128221;0.43016634729358894
1012.59399;25.25;99.12508;1;0.6788587922191823;1.133386443858965;0.43330677807051754
1020.00201;25.5;99.12093;1;0.682078816893103;1.1276899983717104;0.4361550008141448
1027.448;25.75;99.11696;1;0.6851591778462267;1.1222135664012858;0.4388932167993571
1034.89404;26.0;99.11361;1;0.6877584748721745;1.1175715191929787;0.44121424040351065
1042.36096;26.25;99.11082;1;0.6899232625445159;1.1136906885764721;0.44315465571176393
1049.84204;26.5;99.10882;1;0.6914750816644867;1.1109003885776858;0.4445498057111571
1057.34302;26.75;99.1069;1;0.6929648280196502;1.1082150910005688;0.4458924544997156
1064.86401;27.0;99.10539;1;0.6941364514552195;1.1060986367314274;0.4469506816342863
1072.39905;27.25;99.10437;1;0.6949278792063984;1.1046666841968242;0.4476666579015879
1079.93799;27.5;99.10366;1;0.6954787749939839;1.1036688362113267;0.44816558189433664
1087.48401;27.75;99.10336;1;0.6957115478619862;1.10324693906308;0.44837653046846004
1095.01904;28.0;99.1029;1;0.6960684662595698;1.1025997165616002;0.4487001417191999
1102.57898;28.25;99.10275;1;0.6961848526935709;1.1023885835882539;0.44880570820587307
1110.13196;28.5;99.10264;1;0.6962702027451738;1.102233727037648;0.44888313648117595
1117.67603;28.75;99.10241;1;0.6964486619439602;1.1019098657440904;0.4490450671279548
1125.18994;29.0;99.10238;1;0.696471939230767;1.101867615948909;0.44906619202554554
1132.70105;29.25;99.10208;1;0.6967047120987582;1.1014450288620705;0.44927748556896474
1140.20703;29.5;99.10158;1;0.6970926668787509;1.1007403565260048;0.4496298217369976
1147.70898;29.75;99.10106;1;0.6974961398499371;1.1000070184322697;0.44999649078386517
1155.18103;30.0;99.10027;1;0.6981091084023298;1.0988919721204087;0.45055401393979566
1162.64905;30.25;99.09944;1;0.6987531133371095;1.0977192476455726;0.4511403761772137
1170.12097;30.5;99.09853;1;0.6994591910366964;1.0964320479871128;0.4517839760064436
1177.59399;30.75;99.09735;1;0.7003747643174677;1.0947606782900678;0.4526196608549661
1185.05505;31.0;99.09611;1;0.7013368921718527;1.0930015696752633;0.45349921516236835
1192.52295;31.25;99.0949;1;0.7022757427394308;1.0912822865978704;0.4543588567010648
1199.99695;31.5;99.09336;1;0.703470643461796;1.089090182745587;0.4554549086272065
1207.48206;31.75;99.09185;1;0.7046422668973764;1.0869364895938007;0.45653175520309963
1214.97803;32.0;99.08989;1;0.706163049634938;1.0841345864145502;0.4579327067927249
1222.48401;32.25;99.08736;1;0.7081261008216863;1.0805071016486911;0.45974644917565444
1229.98706;32.5;99.0854;1;0.709646883559248;1.077688482708713;0.4611557586456435
1237.51697;32.75;99.08258;1;0.7118349485184072;1.0736201404250811;0.46318992978745943
1245.047;33.0;99.07945;1;0.7142635454411489;1.069086440955737;0.4654567795221315
1252.57202;33.25;99.07612;1;0.7168473242758812;1.0642418441766304;0.4678790779116848
1260.11206;33.5;99.07224;1;0.7198578533686174;1.0585691222237357;0.47071543888813216
1267.62598;33.75;99.06749;1;0.7235434237785204;1.0515827617862126;0.4742086191068937
1275.16101;34.0;99.06153;1;0.7281678447560127;1.04275050754049;0.47862474622975504
1282.646;34.25;99.05312;1;0.734693244155457;1.030158736980943;0.48492063150952847
1290.13599;34.5;99.0409;1;0.7441748589784437;1.0115831968188407;0.49420840159057966
1297.59998;34.75;99.02363;1;0.7575748170793246;0.9847338379900944;0.5076330810049527
1305.01599;35.0;98.99319;1;0.7811935040851662;0.935535132242149;0.5322324338789255
1312.41394;35.25;98.95841;1;0.8081796385813277;0.8759460289736402;0.5620269855131799
1319.77405;35.5;98.91372;1;0.8428550368169115;0.79283027990381;0.603584860048095
1327.12305;35.75;98.8579;1;0.8861663084550873;0.6747849777370943;0.6626075111314529
1333.45179;36.0;98.79554;2;0.934552028615544;0.5116560226732644;0.7441719886633678
1336.65409;36.25;98.71119;2;1.0;0.0;1.0
