##Temp./Â°C;Time/min;Mass/%;Segment;Alpha;F_alpha;G_alpha
117.344;0.0;100.0;1;0.0;2.0;0.0
133.289;0.5;99.98487;1;0.008393385147091821;1.9915889283212116;0.004205535839394203
150.388;1.0;99.9738;1;0.014534480558746966;1.985412319334453;0.007293840332773471
168.364;1.5;99.9659;1;0.018917014773020848;1.9809926655361236;0.009503667231938184
186.849;2.0;99.96009;1;0.02214011904960367;1.9777359590707717;0.011132020464614145
205.658;2.5;99.95484;1;0.025052562673010585;1.9747885328074897;0.012605733596255164
224.502;3.0;99.94957;1;0.027976101319756193;1.9718254473256438;0.0140872763371781
243.13499;3.5;99.94366;1;0.03125468071296941;1.9684972128880758;0.015751393555962112
261.26401;4.0;99.93613;1;0.03543195699568641;1.9642485005765575;0.017875749711721234
278.832;4.5;99.92726;1;0.04035259984133893;1.9592318904699986;0.020384054765000714
295.69299;5.0;99.91819;1;0.04538419292026801;1.9540888486245778;0.022955575687711116
311.79999;5.5;99.90924;1;0.050349215859228004;1.9490005481176982;0.025499725941150908
327.091;6.0;99.90119;1;0.054814962748459296;1.9444125459907327;0.027793727004633673
341.55099;6.5;99.89439;1;0.05858727067973581;1.9405285149363452;0.029735742531827425
355.15601;7.0;99.88858;1;0.061810374956310754;1.937203783853097;0.03139810807345145
367.95499;7.5;99.88283;1;0.06500019416290904;1.933907759782861;0.033046120108569554
379.99301;8.0;99.87722;1;0.06811234820621531;1.9306865636801689;0.034656718159915556
391.36401;8.5;99.87081;1;0.07166830318260414;1.926999425861249;0.03650028706937547
402.16901;9.0;99.86424;1;0.07531301834562366;1.9232129176504367;0.038393541174781665
412.50699;9.5;99.85725;1;0.07919072899851132;1.9191761472063877;0.04041192639680613
422.45999;10.0;99.84976;1;0.08334581523457459;1.9148411785476365;0.042579410726181766
432.16299;10.5;99.84124;1;0.08807229517200103;1.9098981175214547;0.04505094123927267
441.673;11.0;99.83121;1;0.09363644937063546;1.904062552154592;0.047968723922704015
451.065;11.5;99.81916;1;0.10032120092532677;1.8970279903835612;0.05148600480821941
460.38599;12.0;99.80421;1;0.10861473086247286;1.8882640378268365;0.05586798108658175
469.70599;12.5;99.78577;1;0.11884434237023007;1.8773978349084883;0.061301082545755836
479.04099;13.0;99.76339;1;0.13125967347346276;1.8641248096911722;0.06793759515441389
488.41199;13.5;99.73605;1;0.14642657036186082;1.847780755001133;0.07610962249943354
497.82999;14.0;99.70391;1;0.16425627284881722;1.8283804058796767;0.08580979706016167
507.293;14.5;99.6665;1;0.18500951398250345;1.805536469880901;0.09723176505954945
516.82202;15.0;99.62429;1;0.20842556071474014;1.7794093843579222;0.11029530782103891
526.41199;15.5;99.57821;1;0.23398849446081021;1.7504416648825403;0.12477916755872986
536.05499;16.0;99.52447;1;0.2638008221412318;1.716040999345608;0.14197950032719597
545.73602;16.5;99.47475;1;0.29138305013286253;1.6835877759916618;0.15820611200416912
555.49103;17.0;99.42743;1;0.317633875325222;1.6521091061728073;0.17394544691359637
565.33698;17.5;99.38841;1;0.3392802658367624;1.6256933710429375;0.18715331447853123
575.24402;18.0;99.35147;1;0.3597727739222535;1.6002840073908713;0.19985799630456436
585.22998;18.5;99.32136;1;0.3764763315414876;1.5792702979015496;0.2103648510492252
595.23602;19.0;99.29686;1;0.39006773511741544;1.5619632068427023;0.21901839657864886
605.24902;19.5;99.27716;1;0.4009963330947928;1.5479065435680635;0.22604672821596827
615.22998;20.0;99.2608;1;0.4100720621765086;1.536135329746037;0.23193233512698153
625.159;20.5;99.24659;1;0.4179550762505488;1.525837375016684;0.23708131249165798
635.02502;21.0;99.23365;1;0.4251335563433034;1.5163989496919292;0.24180052515403538
644.81897;21.5;99.22181;1;0.43170181015305276;1.5077110994443825;0.24614445027780874
654.58698;22.0;99.21048;1;0.43798714086796114;1.4993503381558813;0.25032483092205937
664.37701;22.5;99.19927;1;0.4442059014429083;1.4910319896730475;0.25448400516347625
674.27301;23.0;99.18783;1;0.45055225478611244;1.4824948501952881;0.2587525749023559
684.21698;23.5;99.17604;1;0.4570927710375505;1.4736447726130601;0.2631776136934699
694.159;24.0;99.16417;1;0.4636776673822961;1.4646806240511328;0.2676596879744336
704.078;24.5;99.15196;1;0.47045117912360235;1.4554021037175913;0.27229894814120437
713.97101;25.0;99.13971;1;0.4772468809115702;1.4460333593502328;0.2769833203248836
723.86102;25.5;99.12746;1;0.48404258269953016;1.436603518442677;0.28169824077866146
733.716;26.0;99.11505;1;0.49092704467411297;1.4269869730672204;0.2865065134663898
743.58502;26.5;99.10242;1;0.49793355190529526;1.4171329480252794;0.2914335259873603
753.41101;27.0;99.08983;1;0.5049178690898158;1.4072414588977744;0.2963792705511128
763.24103;27.5;99.07666;1;0.5122239419508353;1.3968193269699052;0.3015903365150474
773.073;28.0;99.06348;1;0.5195355623235203;1.3863108420213408;0.3068445789893296
782.90302;28.5;99.05004;1;0.5269914179994584;1.3755123874404644;0.3122438062797678
792.758;29.0;99.03637;1;0.5345748664436535;1.364441473360212;0.31777926331989403
802.625;29.5;99.02246;1;0.5422914551677867;1.353083212270721;0.3234583938646395
812.51202;30.0;99.00837;1;0.5501078991018579;1.3414799303726346;0.3292600348136827
822.427;30.5;98.99428;1;0.557924343035929;1.3297754050426276;0.3351122974786862
832.37299;31.0;98.98018;1;0.5657463344816654;1.317958520619423;0.34102073969028845
842.31097;31.5;98.96659;1;0.5732854028325609;1.3064679057174564;0.3467660471412718
852.26898;32.0;98.95349;1;0.5805526431119304;1.2952951121471423;0.35235244392642884
862.23901;32.5;98.94124;1;0.5873483448998984;1.2847593628381957;0.35762031858090215
872.21997;33.0;98.92968;1;0.5937612683830636;1.2747371989817138;0.3626314005091431
882.20001;33.5;98.91885;1;0.5997692235147886;1.2652759011143955;0.36736204944280226
892.19202;34.0;98.90821;1;0.6056717759249102;1.2559111816925428;0.3720444091537286
902.16302;34.5;98.89784;1;0.6114245455201053;1.246716414394059;0.3766417928029705
912.14398;35.0;98.88751;1;0.6171551250686467;1.2374891917610487;0.38125540411947567
922.146;35.5;98.87702;1;0.6229744648038108;1.2280481019832883;0.38597594900835586
932.16602;36.0;98.86604;1;0.6290656326104931;1.2180876280292923;0.39095618598535387
942.20697;36.5;98.85487;1;0.6352622031387787;1.207870517665236;0.396064741167382
952.242;37.0;98.84346;1;0.6415919139470023;1.1973438704950181;0.40132806475249094
962.25403;37.5;98.83163;1;0.6481546202450863;1.186331116939809;0.4068344415300955
972.21503;38.0;98.81984;1;0.6546951364965244;1.175252931931634;0.412373534034183
982.15698;38.5;98.80813;1;0.6611912726546472;1.1641455705286223;0.41792721473568883
992.10303;39.0;98.797;1;0.6673656531362868;1.1534892229469909;0.4232553885265046
1002.086;39.5;98.78632;1;0.6732903955930543;1.1431703362263137;0.42841483188684315
1012.11603;40.0;98.77657;1;0.6786992194651047;1.1336679946702126;0.4331660026648937
1022.16803;40.5;98.76769;1;0.6836254098224227;1.124943714463221;0.43752814276838947
1032.23999;41.0;98.76001;1;0.687885898780105;1.117343458780504;0.441328270609748
1042.30505;41.5;98.75306;1;0.6917414193863309;1.1104207862133508;0.4447896068933246
1052.34204;42.0;98.74703;1;0.6950865689195133;1.1043793389600998;0.4478103305199501
1062.40906;42.5;98.7417;1;0.6980433926362356;1.099011569299913;0.4504942153500435
1072.453;43.0;98.73643;1;0.7009669312829733;1.0936783233053982;0.4531608383473009
1082.49402;43.5;98.7324;1;0.7032025784834216;1.0895823447846031;0.45520882760769843
1092.53503;44.0;98.72829;1;0.7054826057771775;1.085389136158682;0.457305431920659
1102.58203;44.5;98.72468;1;0.7074852574877497;1.0816926412105248;0.4591536793947376
1112.62805;45.0;98.72123;1;0.7093991490117072;1.0781481363677123;0.46092593181614383
1122.65198;45.5;98.71784;1;0.7112797554656879;1.0746538876016074;0.4626730561991963
1132.66199;46.0;98.7145;1;0.7131326243613416;1.071200029198391;0.4643999854008045
1142.69202;46.5;98.7114;1;0.714852352977073;1.0679843576062846;0.4660078211968577
1152.70801;47.0;98.70851;1;0.7164555838478623;1.0649777765796573;0.46751111171017135
1162.71204;47.5;98.70655;1;0.7175428961339425;1.06293387163277;0.46853306418361496
1172.71997;48.0;98.70548;1;0.7181364798819515;1.061816406198451;0.4690917969007745
1182.72705;48.5;98.70544;1;0.7181586699286053;1.061774608985155;0.4691126955074225
1192.74902;49.0;98.70655;1;0.7175428961339425;1.06293387163277;0.46853306418361496
1202.76794;49.5;98.70866;1;0.7163723711729127;1.0651340363110875;0.46743298184445625
1212.80298;50.0;98.71071;1;0.7152351312818597;1.0672672930773066;0.4663663534613467
1222.83606;50.5;98.71228;1;0.7143641719506671;1.0688981767209313;0.4655509116395343
1232.83606;51.0;98.71305;1;0.7139370135525729;1.069697128064626;0.46515143596768704
1242.849;51.5;98.71297;1;0.7139813936458804;1.0696141479133858;0.4651929260433071
1252.85999;52.0;98.71105;1;0.715046515885299;1.0676206894111804;0.4661896552944098
1262.85901;52.5;98.70728;1;0.7171379277824942;1.063695580920605;0.4681522095396975
1272.84998;53.0;98.70141;1;0.7203943171290537;1.0575550725535694;0.4712224637232153
1282.81702;53.5;98.69093;1;0.7262081093525524;1.0465025382624689;0.47674873086876557
1292.77197;54.0;98.67142;1;0.7370313046083187;1.0256094683488084;0.4871952658255958
1302.68201;54.5;98.63715;1;0.7560426270796199;0.9878408230486936;0.5060795884756533
1312.55396;55.0;98.57267;1;0.7918129822867934;0.9125503114090896;0.5437248442954552
1322.38306;55.5;98.48512;1;0.8403814469019943;0.7990458137003301;0.6004770931498349
1331.46204;56.0;98.37428;2;0.9018700661818141;0.6265139545714394;0.6867430227142803
1330.95898;56.5;98.20339;2;0.9966714930018139;0.11538642897994718;0.9423067855100264
1320.87598;57.0;98.08883;2;1.0602237866205098;;
1303.22998;57.5;98.02054;2;1.098107743771532;;
1279.60095;58.0;97.98529;2;1.1176627223858695;;
1252.41199;58.5;97.97035;2;1.1259507048113582;;
1224.43396;59.0;97.96586;2;1.1284415375483283;;
1197.745;59.5;97.96835;2;1.127060207144084;;
1173.35095;60.0;97.97461;2;1.123587464842645;;
1151.45203;60.5;97.98126;2;1.1198983695863178;;
1131.61304;61.0;97.98836;2;1.1159596363051345;;
1113.15198;61.5;97.99562;2;1.111932142837328;;
1095.25598;62.0;98.00261;2;1.1080544321844406;;
1077.328;62.5;98.00975;2;1.1040935088566033;;
1058.94604;63.0;98.01624;2;1.100493173786899;;
1039.92603;63.5;98.02308;2;1.096698675808969;;
1020.26898;64.0;98.0288;2;1.0935254991373589;;
1000.12402;64.5;98.03426;2;1.09049655776901;;
979.75598;65.0;98.03963;2;1.0875175440056342;;
959.32098;65.5;98.04543;2;1.0842999872407246;;
938.97998;66.0;98.05157;2;1.0808938150792464;;
918.823;66.5;98.0581;2;1.0772712899628885;;
898.91998;67.0;98.06467;2;1.073626574799869;;
879.31;67.5;98.07139;2;1.0698986469619078;;
859.92603;68.0;98.07807;2;1.0661929091705926;;
840.72198;68.5;98.08457;2;1.062587026589223;;
821.66101;69.0;98.09121;2;1.0589034788445613;;
802.73798;69.5;98.09739;2;1.0554751166364296;;
783.90302;70.0;98.10369;2;1.0519801842883365;;
765.12201;70.5;98.10995;2;1.0485074419868972;;
746.42102;71.0;98.11591;2;1.0452011250353648;;
728.01001;71.5;98.12197;2;1.0418393329671942;;
710.00403;72.0;98.12754;2;1.0387493689705496;;
692.53699;72.5;98.1331;2;1.0356649524855623;;
675.71503;73.0;98.13852;2;1.0326582011638672;;
659.49402;73.5;98.14347;2;1.0299121828903672;;
643.76099;74.0;98.14859;2;1.027071856918579;;
628.474;74.5;98.15354;2;1.0243258386450713;;
613.61102;75.0;98.15819;2;1.0217462457214783;;
599.13898;75.5;98.16272;2;1.0192332229378542;;
585.02502;76.0;98.16678;2;1.0169809332024098;;
571.302;76.5;98.1709;2;1.0146953583969884;;
557.97601;77.0;98.17466;2;1.0126094940114587;;
545.02399;77.5;98.17824;2;1.0106234848358748;;
532.44897;78.0;98.18157;2;1.0087761634518864;;
520.19098;78.5;98.18464;2;1.0070730773711434;;
508.24399;79.0;98.18737;2;1.005558606686969;;
496.58701;79.5;98.18976;2;1.0042327513993552;;
485.207;80.0;98.1921;2;1.0029346336700686;;
474.11801;80.5;98.19405;2;1.0018528688956536;;
463.285;81.0;98.19586;2;1.0008487692845387;;
452.71399;81.5;98.19739;2;1.0;0.0;1.0
