##Temp./Â°C;Time/min;Mass/%;Segment;Alpha;F_alpha;G_alpha
121.517;0.0;100.0;1;0.0;2.0;0.0
129.97099;0.5;99.98739;1;0.005159046742352518;1.9948342820972849;0.0025828589513575695
138.567;1.0;99.97755;1;0.009184821519896217;1.9907939908288892;0.004603004585555404
147.231;1.5;99.96982;1;0.01234734581159925;1.9876143028147093;0.00619284859264535
155.86501;2.0;99.96405;1;0.014707988135419762;1.9852375292287623;0.007381235385618856
164.40601;2.5;99.95885;1;0.016835430091030727;1.9830931091695814;0.008453445415209315
172.826;3.0;99.95458;1;0.01858238723534539;1.9813304749734755;0.009334762513262262
181.08501;3.5;99.95061;1;0.020206607343767027;1.9796902713871511;0.010154864306424427
189.196;4.0;99.94699;1;0.02168763424363323;1.9781934847293041;0.01090325763534794
197.08;4.5;99.94373;1;0.02302137670041849;1.9768445799299261;0.011577710035036937
204.729;5.0;99.94055;1;0.024322389280964838;1.9755278896730717;0.012236055163464155
212.127;5.5;99.93771;1;0.025484299887492883;1.974351235330236;0.012824382334882034
219.261;6.0;99.93472;1;0.026707579011967443;1.9731116754892841;0.013444162255357939
226.12601;6.5;99.93187;1;0.027873580853020993;1.9719294299208368;0.014035285039581624
232.763;7.0;99.92888;1;0.029096859977495552;1.9706883467687166;0.014655826615641687
239.147;7.5;99.92607;1;0.03024649688043546;1.9695212647946347;0.01523936760268263
245.30299;8.0;99.92309;1;0.0314656847703787;1.9682828203585188;0.01585858982074062
251.263;8.5;99.92005;1;0.03270942006750404;1.9670186373621334;0.016490681318933276
257.00699;9.0;99.91702;1;0.033949064130103866;1.965757803870961;0.017121098064519447
262.58899;9.5;99.91381;1;0.03526235041423836;1.9644211865949335;0.01778940670253326
268.00699;10.0;99.91066;1;0.03655108929119656;1.9631086681167738;0.01844566594161312
273.27899;10.5;99.90774;1;0.03774572977395771;1.9618912000679776;0.019054399966011215
278.43301;11.0;99.90472;1;0.038981282602026227;1.9606312426338348;0.019684378683082593
283.47699;11.5;99.90187;1;0.04014728444307977;1.95944146690522;0.020279266547389985
288.43399;12.0;99.89917;1;0.04125191776618681;1.958313644168179;0.020843177915910505
293.32401;12.5;99.89645;1;0.042364733558350666;1.957176810042107;0.021411594978946513
298.14801;13.0;99.89382;1;0.04344072823974429;1.956076963475881;0.0219615182620595
302.93701;13.5;99.8914;1;0.0444308069960093;1.9550643907595378;0.022467804620231124
307.715;14.0;99.88888;1;0.04546179809757587;1.9540094185058823;0.02299529074705886
312.444;14.5;99.88698;1;0.04623913265828211;1.9532136261471431;0.023393186926428444
317.17401;15.0;99.88488;1;0.04709829190958564;1.9523336887841836;0.02383315560790822
321.871;15.5;99.88301;1;0.04786335276669793;1.9515497915588031;0.024225104220598426
326.59399;16.0;99.88107;1;0.04865705226552363;1.9507362176721652;0.024631891163917397
331.311;16.5;99.87912;1;0.049454842998874836;1.9499181080251808;0.02504094598740958
336.04501;17.0;99.87722;1;0.05023217755958108;1.9491206452556178;0.025439677372191105
340.77499;17.5;99.87534;1;0.05100132965122468;1.9483312555607943;0.02583437221960283
345.526;18.0;99.87332;1;0.05182775902628349;1.9474827249284823;0.026258637535758855
350.28201;18.5;99.87111;1;0.05273192185741989;1.9465539582992095;0.02672302085039524
355.048;19.0;99.86917;1;0.05352562135624559;1.9457382954999414;0.027130852250029314
359.836;19.5;99.86697;1;0.05442569295285068;1.944812903131969;0.027593548434015513
364.65302;20.0;99.86434;1;0.0555016876342443;1.9437060604584795;0.028146969770760255
369.46799;20.5;99.86161;1;0.05661859466093947;1.9425564654228824;0.028721767288558797
374.32101;21.0;99.85892;1;0.05771913674951519;1.9414230484368777;0.02928847578156113
379.18399;21.5;99.85592;1;0.05894650710852107;1.9401582336412448;0.029920883179377578
384.06699;22.0;99.85271;1;0.06025979339265555;1.9388039680249722;0.030598015987513882
389.01001;22.5;99.84938;1;0.06162217449115423;1.9373980752636726;0.03130096236816371
393.94601;23.0;99.84594;1;0.06302955916947997;1.9359446694887952;0.03202766525560241
398.952;23.5;99.84208;1;0.06460877569806873;1.9343125128085494;0.03284374359572528
403.95599;24.0;99.83811;1;0.06623299580648455;1.9326324060136375;0.03368379699318125
408.98499;24.5;99.83393;1;0.0679431318400348;1.9308618471138377;0.03456907644308116
414.02499;25.0;99.82933;1;0.06982509972384225;1.9289115068101572;0.03554424659492139
419.06699;25.5;99.82386;1;0.07206300501176392;1.9265897279786748;0.03670513601066261
424.09299;26.0;99.81803;1;0.07444819474276654;1.9241120604135649;0.03794396979321757
429.12799;26.5;99.81208;1;0.07688247928812751;1.9215801005546165;0.03920994972269176
434.13199;27.0;99.80519;1;0.0797013398793103;1.9186439587590916;0.040678020620454225
439.12701;27.5;99.79753;1;0.08283522552930574;1.915374401489896;0.04231279925505205
444.11401;28.0;99.789;1;0.08632504858340956;1.911726917126597;0.04413654143670154
449.06699;28.5;99.77938;1;0.09026081620128751;1.9076049735715332;0.04619751321423338
454.01099;29.0;99.76842;1;0.09474480924618767;1.9028979907013537;0.04855100464932316
458.94299;29.5;99.75607;1;0.09979748389076662;1.8975800548163795;0.05120997259181026
463.86801;30.0;99.74212;1;0.10550475606014134;1.8915551738607665;0.054222413069616726
468.78;30.5;99.72671;1;0.11180934847090244;1.8848773451119811;0.057561327444009436
473.686;31.0;99.70931;1;0.1189280965531342;1.8773086090964008;0.061345695451799576
478.591;31.5;99.68985;1;0.12688963894855004;1.8688074925486038;0.0655962537256981
483.49899;32.0;99.66878;1;0.13550987010330462;1.8595592272328358;0.07022038638358208
488.40701;32.5;99.6457;1;0.14495243939858665;1.8493756358310913;0.07531218208445434
493.328;33.0;99.62071;1;0.15517643448910626;1.8382856856439846;0.08085715717800768
498.246;33.5;99.59392;1;0.16613685179503054;1.8263221492441792;0.08683892537791038
503.186;34.0;99.56523;1;0.17787460366165528;1.813422616312419;0.09328869184379052
508.138;34.5;99.53504;1;0.19022604070778584;1.7997488261334849;0.10012558693325757
513.10101;35.0;99.50361;1;0.20308479083563705;1.7854021498411645;0.10729892507941774
518.09198;35.5;99.47117;1;0.21635675565101767;1.7704725294101373;0.11476373529493133
523.08301;36.0;99.43844;1;0.22974736626777165;1.7552807567249502;0.1223596216375249
528.09198;36.5;99.40604;1;0.2430029661450328;1.7401115295922467;0.12994423520387666
533.12201;37.0;99.37468;1;0.2558330776311764;1.7253022023620368;0.1373488988189816
538.16498;37.5;99.34487;1;0.2680290477651634;1.711106019199087;0.1444469904004565
543.216;38.0;99.31684;1;0.2794967781528083;1.697649223894255;0.15117538805287245
548.27802;38.5;99.29081;1;0.2901462616344513;1.6850563650697845;0.15747181746510774
553.34399;39.0;99.26743;1;0.2997115679656322;1.673664759782398;0.16316762010880104
558.40503;39.5;99.24565;1;0.3086222767720173;1.6629825293465745;0.16850873532671273
563.47998;40.0;99.22582;1;0.3167351948450454;1.653196667254026;0.17340166637298704
568.52197;40.5;99.20719;1;0.3243571647744723;1.6439499204361765;0.17802503978191175
573.55798;41.0;99.19009;1;0.33135317582080526;1.6354165514378223;0.18229172428108886
578.57898;41.5;99.17416;1;0.3378705124271251;1.6274267879973894;0.1862866060013053
583.59198;42.0;99.15903;1;0.3440605502710442;1.6198017776616445;0.19009911116917777
588.56897;42.5;99.14459;1;0.34996829293239534;1.612490876957268;0.19375456152136605
593.56299;43.0;99.13067;1;0.3556632913981819;1.6054117336083202;0.19729413319583988
598.54199;43.5;99.11698;1;0.3612641914697773;1.5984189795297385;0.20079051023513073
603.51703;44.0;99.10345;1;0.3667996317888948;1.5914777638548459;0.20426111807257707
608.47498;44.5;99.09013;1;0.37224915618287785;1.5846145825621096;0.20769270871894518
613.42902;45.0;99.07681;1;0.37769868057686673;1.5777215463105436;0.2111392268447282
618.39099;45.5;99.06345;1;0.3831645699089693;1.5707774254693512;0.2146112872653244
623.35901;46.0;99.05002;1;0.38865909788278524;1.5637658419561602;0.2181170790219199
628.31598;46.5;99.03677;1;0.3940799836350607;1.5568172871148873;0.22159135644255634
633.271;47.0;99.02361;1;0.39946404827656595;1.5498850947388765;0.22505745263056176
638.23602;47.5;99.01006;1;0.40500767106474606;1.5427149171966335;0.22864254140168327
643.16998;48.0;98.99674;1;0.41045719545872916;1.535633816430559;0.23218309178472052
648.13501;48.5;98.98316;1;0.4160130919504974;1.5283807222672008;0.2358096388663996
653.099;49.0;98.96973;1;0.42150761992431335;1.521173731137488;0.239413134431256
658.07501;49.5;98.95611;1;0.4270798813542011;1.5138297376466072;0.2430851311766964
663.09003;50.0;98.94242;1;0.4326807814257964;1.5064119205240027;0.24679403973799863
668.13501;50.5;98.92846;1;0.43839214482970246;1.498810001528276;0.25059499923586204
673.177;51.0;98.91451;1;0.4440994169990772;1.4911748160439444;0.2544125919780278
678.21301;51.5;98.90048;1;0.44983941904469665;1.4834562089327792;0.2582718955336104
683.23999;52.0;98.88645;1;0.4555794210903161;1.4756972303418936;0.2621513848290532
688.26001;52.5;98.8723;1;0.46136851795029393;1.4678303472127916;0.2660848263936042
693.23199;53.0;98.85801;1;0.46721489209369277;1.4598426050863254;0.2700786974568373
698.211;53.5;98.84391;1;0.4729835327810198;1.4519179966085967;0.27404100169570167
703.16803;54.0;98.82973;1;0.47878490334458573;1.443904562850903;0.27804771857454846
708.15698;54.5;98.8157;1;0.4845249053901994;1.4359318850276994;0.2820340574861503
713.10797;55.0;98.80174;1;0.49023626879411125;1.4279548048952933;0.2860225975523534
718.05798;55.5;98.78779;1;0.495943540963486;1.4199386733750357;0.2900306633124822
723.03003;56.0;98.77391;1;0.5016221744911531;1.4119175974664342;0.2940412012667829
727.98297;56.5;98.76006;1;0.507288534315232;1.4038681785477838;0.2980659107261081
732.93903;57.0;98.74618;1;0.5129671678428992;1.3957547523216258;0.3021226238391871
737.89697;57.5;98.73245;1;0.5185844328526139;1.3876823370604472;0.3061588314697764
742.85303;58.0;98.71887;1;0.5241403293443823;1.379651652636444;0.310174173681778
747.81201;58.5;98.70515;1;0.5297535031195657;1.3714904256033789;0.31425478719831057
752.77502;59.0;98.69164;1;0.5352807609696205;1.3634063796687759;0.31829681016561207
757.72998;59.5;98.67825;1;0.5407589240053171;1.3553465623148684;0.3223267188425658
762.70001;60.0;98.66511;1;0.5461348061777654;1.3473903574276231;0.32630482128618843
767.66998;60.5;98.65205;1;0.5514779584739692;1.3394357640828183;0.33028211795859086
772.64801;61.0;98.63892;1;0.5568497494118863;1.3313906272587528;0.3343046863706236
777.617;61.5;98.62617;1;0.5620660734376598;1.3235315282415303;0.33823423587923485
782.60498;62.0;98.61337;1;0.5673028536360841;1.3155943848525895;0.34220280757370525
787.59399;62.5;98.60102;1;0.5723555282806573;1.3078906249673061;0.34605468751634694
792.604;63.0;98.58835;1;0.5775391224301919;1.2999398102524717;0.35003009487376413
797.59399;63.5;98.57663;1;0.5823340492993792;1.2925416058303436;0.3537291970848282
802.61798;64.0;98.56485;1;0.5871535235757369;1.2850626076954588;0.3574686961522706
807.61603;64.5;98.55343;1;0.5918257134090196;1.2777703809229268;0.3611148095385366
812.63202;65.0;98.54218;1;0.5964283522552931;1.270545784684215;0.3647271076578925
817.651;65.5;98.53143;1;0.6008264293750646;1.2636036888596605;0.36819815557016977
822.69702;66.0;98.52096;1;0.6051099519279941;1.256805550707039;0.3715972246464805
827.69202;66.5;98.51079;1;0.6092707374450248;1.250166808957869;0.3749165955210655
832.69897;67.0;98.50069;1;0.6134028843203421;1.2435386856542228;0.3782306571728886
837.71399;67.5;98.49096;1;0.617383655518053;1.2371197912602434;0.3814401043698783
842.71997;68.0;98.48161;1;0.6212089598036202;1.2309200464634245;0.3845399767682878
847.72198;68.5;98.47195;1;0.6251610923596176;1.2244817804122403;0.38775910979387984
852.73999;69.0;98.46297;1;0.6288350209675784;1.2184662146032965;0.39076689269835174
857.742;69.5;98.45384;1;0.6325703180934857;1.2123195649770142;0.3938402175114929
862.758;70.0;98.44501;1;0.6361828781834942;1.2063450946002239;0.39682745269988806
867.75598;70.5;98.43592;1;0.6399018103712821;1.200163638223918;0.399918180888041
872.75702;71.0;98.4272;1;0.6434693668814577;1.1942037231871994;0.4028981384064003
877.74402;71.5;98.41863;1;0.6469755548736869;1.1883172053392363;0.4058413973303818
882.73798;72.0;98.41008;1;0.6504735603968532;1.1824152225054392;0.4087923887472804
887.73499;72.5;98.40098;1;0.6541965838191667;1.1761010435856833;0.4119494782071583
892.74597;73.0;98.39193;1;0.657899151068835;1.1697877566997612;0.4151061216501194
897.776;73.5;98.38269;1;0.6616794517745752;1.1633065773482496;0.4183467113258752
902.79602;74.0;98.37348;1;0.6654474787767215;1.156810306356714;0.42159484682164305
907.84003;74.5;98.36424;1;0.6692277794824617;1.1502560071871624;0.4248719964064188
912.86401;75.0;98.35496;1;0.6730244451263155;1.143635527383938;0.428182236308031
917.90399;75.5;98.3455;1;0.6768947529917156;1.1368469501358296;0.4315765249320852
922.93103;76.0;98.33592;1;0.6808141556714742;1.1299306958013413;0.43503465209932934
927.96698;76.5;98.32612;1;0.6848235655108926;1.122811532696574;0.438594233651713
932.98297;77.0;98.3162;1;0.6888820701646752;1.1155589268798396;0.4422205365600802
938.00201;77.5;98.30632;1;0.6929242098803325;1.1082883922872557;0.44585580385637213
943.02002;78.0;98.29626;1;0.6970399918175304;1.100836060787381;0.4495819696063095
948.021;78.5;98.28631;1;0.7011107701749011;1.0934152547410319;0.4532923726294841
953.021;79.0;98.27595;1;0.7053492891480035;1.0856347651986766;0.4571826174006617
958.02197;79.5;98.26596;1;0.709436432443488;1.0780789721657908;0.4609605139171046
963.013;80.0;98.25601;1;0.7135072108008588;1.0705004235387134;0.4647497882306433
967.992;80.5;98.24613;1;0.7175493505165219;1.0629217270965499;0.46853913645172507
972.98297;81.0;98.23636;1;0.7215464866523463;1.0553738926989877;0.47231305365050613
977.96399;81.5;98.22693;1;0.7254045208141583;1.0480371733594982;0.4759814133202509
982.966;82.0;98.21784;1;0.7291234530019463;1.0409160331132454;0.4795419834433773
987.98602;82.5;98.20909;1;0.73270328321571;1.0340149259740694;0.4829925370129653
993.01703;83.0;98.2009;1;0.7360540042957955;1.0275134951993663;0.48624325240031685
998.05298;83.5;98.1933;1;0.7391633425386146;1.0214434051113852;0.4892782974443074
1003.09302;84.0;98.18619;1;0.7420722102894574;1.0157318341187158;0.4921340829406421
1008.146;84.5;98.17972;1;0.7447192390303771;1.010506330449489;0.4947468347752555
1013.18903;85.0;98.17392;1;0.7470921550577916;1.0057988764006618;0.4971005617996691
1018.216;85.5;98.16809;1;0.7494773447887884;1.0010447646558303;0.4994776176720849
1023.23401;86.0;98.16345;1;0.7513756776107211;0.9972448493510084;0.5013775753244958
1028.25098;86.5;98.15899;1;0.7532003682111076;0.99357864668861;0.503210676655695
1033.26599;87.0;98.15529;1;0.7547141249872185;0.9905268800245283;0.5047365599877358
1038.27795;87.5;98.15184;1;0.7561256009000697;0.9876728184979685;0.5061635907510158
1043.28699;88.0;98.14901;1;0.7572834202720664;0.9853254888166317;0.5073372555916842
1048.29504;88.5;98.14653;1;0.7582980464355136;0.9832638579028244;0.5083680710485878
1053.29004;89.0;98.14444;1;0.7591531144522857;0.9815230726737182;0.5092384636631409
1058.30603;89.5;98.14268;1;0.759873171729571;0.980054750042933;0.5099726249785335
1063.32495;90.0;98.14152;1;0.7603477549350527;0.9790857879980637;0.5104571060009682
1068.35498;90.5;98.14047;1;0.7607773345607074;0.9782078826901623;0.5108960586549188
1073.38;91.0;98.1398;1;0.7610514472742185;0.9776472834837348;0.5111763582581326
1078.40295;91.5;98.1398;1;0.7610514472742185;0.9776472834837348;0.5111763582581326
1083.43005;92.0;98.13995;1;0.7609900787562662;0.9777728186930413;0.5111135906534794
1088.44202;92.5;98.14036;1;0.7608223381405345;0.9781158660597742;0.5109420669701129
1093.43005;93.0;98.14103;1;0.7605482254270234;0.9786761968556845;0.5106619015721577
1098.43604;93.5;98.14227;1;0.7600409123453027;0.9797123815787924;0.5101438092106039
1103.43201;94.0;98.14377;1;0.7594272271657969;0.980964368026083;0.5095178159869584
1108.44604;94.5;98.14549;1;0.7587235348266369;0.98239801541608;0.5088009922919601
1113.44897;95.0;98.14728;1;0.7579912038457636;0.9838877906636232;0.5080561046681884
1118.46204;95.5;98.15001;1;0.7568742968190684;0.9861555722723097;0.5069222138638452
1123.46899;96.0;98.1526;1;0.7558146670757884;0.9883022471374061;0.505848876431297
1128.48401;96.5;98.15559;1;0.7545913879513139;0.9907746707474634;0.5046126646262683
1133.47998;97.0;98.1587;1;0.7533190140124809;0.9933397927950316;0.5033301036024842
1138.45898;97.5;98.16164;1;0.7521161910606513;0.9957586232402885;0.5021206883798557
1143.43701;98.0;98.16389;1;0.7511956632914012;0.9976058073379461;0.5011970963310269
1148.41504;98.5;98.16501;1;0.7507374450240389;0.9985240206944669;0.5007379896527666
1153.40906;99.0;98.1649;1;0.750782448603866;0.9984338764207352;0.5007830617896324
1158.44104;99.5;98.16468;1;0.7508724557635259;0.9982535634526413;0.5008732182736794
1163.479;100.0;98.16434;1;0.75101155773755;0.9979748338759851;0.5010125830620075
1168.53101;100.5;98.16375;1;0.7512529405748223;0.9974909712376904;0.5012545143811549
1173.56604;101.0;98.16322;1;0.7514697760049124;0.9970561147600222;0.501471942619989
1178.58105;101.5;98.16248;1;0.751772527360131;0.9964486391979649;0.5017756804010176
1183.58398;102.0;98.16173;1;0.752079369949881;0.9958325763904673;0.5020837118047663
1188.58606;102.5;98.16105;1;0.7523575738979235;0.9952736831687584;0.5023631584156207
1193.58801;103.0;98.16015;1;0.7527257850056258;0.9945334886153894;0.5027332556923053
1198.59497;103.5;98.15922;1;0.7531062698169163;0.9937680417141289;0.5031159791429356
1203.59705;104.0;98.15858;1;0.7533681088268392;0.9932409398996012;0.5033795300501994
1208.59705;104.5;98.15754;1;0.7537935972179626;0.9923838023306052;0.5038080988346973
1213.61804;105.0;98.15637;1;0.7542722716579757;0.9914186367867497;0.5042906816066252
1218.62903;105.5;98.15514;1;0.754775493505165;0.9904029614148676;0.5047985192925661
1223.65295;106.0;98.15379;1;0.7553278101667185;0.9892869954331382;0.5053565022834309
1228.68103;106.5;98.15245;1;0.7558760355937407;0.9881780495563728;0.5059109752218136
1233.68604;107.0;98.15121;1;0.7563833486754613;0.9871507510497851;0.5064246244751074
1238.70996;107.5;98.14953;1;0.7570706760765077;0.9857572194480593;0.5071213902759704
1243.71301;108.0;98.14777;1;0.7577907333537929;0.9842952131270519;0.507852393436474
1248.724;108.5;98.14608;1;0.7584821519893648;0.9828893081331901;0.5085553459334049
1253.74194;109.0;98.14396;1;0.759349493709725;0.9811228389763943;0.5094385805118029
1258.75195;109.5;98.14167;1;0.7602863864171004;0.9792111387906074;0.5103944306046964
1263.75403;110.0;98.13954;1;0.7611578193719979;0.9774296509273741;0.511285174536313
1268.76001;110.5;98.13695;1;0.762217449115272;0.975259044325615;0.5123704778371925
1273.77295;111.0;98.13404;1;0.7634079983635077;0.9728144769409885;0.5135927615295057
1278.76794;111.5;98.13108;1;0.7646190037843941;0.9703215883728568;0.5148392058135716
1283.78198;112.0;98.1273;1;0.7661654904367382;0.9671287599141322;0.5164356200429339
1288.78601;112.5;98.12199;1;0.768337935972182;0.962625709251146;0.5186871453744271
1293.78601;113.0;98.1153;1;0.7710749718727616;0.9569222081804526;0.5215388959097738
1298.78003;113.5;98.10576;1;0.7749780096144007;0.9487296567212377;0.5256351716393812
1303.77795;114.0;98.09214;1;0.7805502710442884;0.936909235637501;0.5315453821812495
1308.75098;114.5;98.07253;1;0.7885731819576566;0.9196234404197045;0.5401882797901478
1313.72595;115.0;98.04556;1;0.7996072414851214;0.895304994993055;0.5523475025034725
1318.70996;115.5;98.00796;1;0.8149902833179935;0.8602551172344318;0.569872441382784
1323.68506;116.0;97.95745;1;0.8356551089291228;0.8107894697660478;0.5946052651169761
1328.65796;116.5;97.89284;2;0.8620885752275733;0.7427285500704189;0.6286357249647905
1329.97803;117.0;97.7784;2;0.9089086631891166;0.6036268278030175;0.6981865860984913
1321.58704;117.5;97.67304;2;0.9520139101974032;0.43811455032946245;0.7809427248352687
1305.48096;118.0;97.61153;2;0.9771790937915521;0.30213180043449844;0.8489340997827508
1283.29395;118.5;97.58021;2;0.9899928403395764;0.2000715837936377;0.8999642081031811
1257.32397;119.0;97.56836;2;0.9948409532576474;0.14365300891178812;0.9281734955441059
1230.25;119.5;97.56491;2;0.9962524291705045;0.12243481252479632;0.9387825937376019
1204.125;120.0;97.56346;2;0.9968456581773538;0.11232705502497924;0.9438364724875103
1180.09998;120.5;97.56195;2;0.997463434591391;0.10072865349261899;0.9496356732536905
1158.44604;121.0;97.56087;2;0.9979052879206338;0.09153604927821997;0.95423197536089
1138.83801;121.5;97.56001;2;0.9982571340902109;0.08349529111965813;0.958252354440171
1120.61206;122.0;97.5596;2;0.9984248747059425;0.07937569638264487;0.9603121518086776
1103.03101;122.5;97.55923;2;0.9985762503835548;0.07546521361382878;0.9622673931930856
1085.45801;123.0;97.55912;2;0.9986212539633876;0.07426293925269498;0.9628685303736525
1067.43799;123.5;97.55912;2;0.9986212539633876;0.07426293925269498;0.9628685303736525
1048.74304;124.0;97.55912;2;0.9986212539633876;0.07426293925269498;0.9628685303736525
1029.36401;124.5;97.55908;2;0.9986376189015072;0.0738208940204018;0.9630895529897991
1009.39398;125.0;97.55901;2;0.9986662575432147;0.07304087778183674;0.9634795611090816
989.08002;125.5;97.55904;2;0.9986539838396266;0.07337618579276091;0.9633119071036196
968.66101;126.0;97.55904;2;0.9986539838396266;0.07337618579276091;0.9633119071036196
948.297;126.5;97.55878;2;0.998760355937406;0.07041715877807128;0.9647914206109643
928.06097;127.0;97.55874;2;0.9987767208755255;0.0699508148479918;0.9650245925760041
908.05603;127.5;97.55871;2;0.9987889945791136;0.06959900634021633;0.9652004968298918
888.37299;128.0;97.55856;2;0.9988503630970659;0.06781259183762632;0.9660937040811869
868.94202;128.5;97.55859;2;0.9988380893934777;0.06817361972265416;0.9659131901386729
849.72998;129.0;97.55856;2;0.9988503630970659;0.06781259183762632;0.9660937040811869
830.66699;129.5;97.55848;2;0.9988830929733048;0.066840317973367;0.9665798410133165
811.73602;130.0;97.55833;2;0.9989444614912572;0.0649781042734504;0.9675109478632749
792.91901;130.5;97.5583;2;0.9989567351948453;0.06459921996912064;0.9677003900154397
774.15302;131.0;97.55796;2;0.9990958371688694;0.06013860095248625;0.9699306995237569
755.44501;131.5;97.55781;2;0.9991572056868159;0.058061839901405995;0.970969080049297
736.96002;132.0;97.55755;2;0.9992635777845953;0.054274200699953506;0.9728628996500233
718.78802;132.5;97.55743;2;0.9993126725989595;0.05243385932927287;0.9737830703353636
701.08801;133.0;97.5572;2;0.9994067709931508;0.04871258592393618;0.9756437070380319
683.95898;133.5;97.55698;2;0.9994967781528107;0.04486521357084203;0.977567393214579
667.46002;134.0;97.55679;2;0.9995745116088767;0.041254739903353155;0.9793726300483234
651.50098;134.5;97.55668;2;0.9996195151887095;0.03901203974623698;0.9804939801268815
636.03302;135.0;97.55661;2;0.9996481538304172;0.037515125993808775;0.9812424370030957
620.98401;135.5;97.55653;2;0.9996808837066619;0.03572765278257947;0.9821361736087103
606.33398;136.0;97.55642;2;0.9997258872864889;0.033112699286592544;0.9834436503567038
592.08002;136.5;97.55634;2;0.9997586171627278;0.031073000323248653;0.9844634998383757
578.19897;137.0;97.55631;2;0.9997708908663218;0.030272702798279524;0.9848636486008603
564.703;137.5;97.5562;2;0.9998158944461488;0.027137100349976753;0.9864314498250116
551.58197;138.0;97.55612;2;0.9998486243223877;0.02460696467362468;0.9876965176631877
538.841;138.5;97.55605;2;0.9998772629641012;0.022157349651871574;0.9889213251740642
526.466;139.0;97.55605;2;0.9998772629641012;0.022157349651871574;0.9889213251740642
514.38702;139.5;97.55605;2;0.9998772629641012;0.022157349651871574;0.9889213251740642
502.62399;140.0;97.55597;2;0.9999099928403401;0.018974420640420035;0.99051278967979
491.14301;140.5;97.55593;2;0.9999263577784595;0.017163009239698386;0.9914184953801508
479.94699;141.0;97.55575;2;1.0;0.0;1.0
469.01901;141.5;97.55571;2;1.0000163649381195;;
458.36401;142.0;97.55575;2;1.0;0.0;1.0
