##Temp./Â°C;Time/min;Mass/%;Segment;Alpha;F_alpha;G_alpha
118.166;0.0;100.0;1;0.0;2.0;0.0
134.229;0.5;99.97274;1;0.007023166659795926;1.9929644586296105;0.0035177706851947654
151.42799;1.0;99.9547;1;0.01167092625417306;1.9882948209416298;0.005852589529185104
169.412;1.5;99.9432;1;0.014633744177417545;1.985312323865021;0.007343838067489505
187.968;2.0;99.9347;1;0.016823653077206787;1.9831049865529493;0.008447506723525344
206.808;2.5;99.92683;1;0.018851251082073833;1.9810590591074524;0.009470470446273804
225.61501;3.0;99.91928;1;0.020796405457768122;1.979094332812089;0.010452833593955546
244.186;3.5;99.91132;1;0.0228471907333352;1.9770207983394255;0.011489600830287272
262.311;4.0;99.90295;1;0.025003606908775074;1.9748381129512615;0.012580943524369226
279.87201;4.5;99.8937;1;0.027386743064430872;1.9724231360796487;0.013788431960175651
296.681;5.0;99.88492;1;0.02964879013974353;1.9701281276711486;0.014935936164425678
312.69;5.5;99.87647;1;0.03182581722247476;1.967916850659626;0.016041574670186964
327.84;6.0;99.86868;1;0.03383280432004679;1.9658760852911896;0.01706195735440519
342.138;6.5;99.86244;1;0.03544045508883135;1.9642398477896417;0.017880076105179166
355.58301;7.0;99.85689;1;0.03687033678222336;1.9627833942824935;0.018608302858753256
368.203;7.5;99.85113;1;0.038354322107259774;1.961270687990559;0.019364656004720482
380.08899;8.0;99.84481;1;0.039982583783339354;1.9596095694976188;0.020195215251190612
391.289;8.5;99.83831;1;0.041657220000822656;1.9578996705645337;0.021050164717733133
401.94601;9.0;99.83064;1;0.04363329073745765;1.955880067143732;0.022059966428134015
412.16;9.5;99.82265;1;0.045691805103261734;1.9537739837522028;0.023113008123898604
422.02499;10.0;99.81371;1;0.04799507399315711;1.951414795482337;0.024292602258831453
431.66;10.5;99.80363;1;0.05059204831196716;1.9487513455420964;0.025624327228951804
441.12201;11.0;99.7918;1;0.05363988622779308;1.9456208405259303;0.02718957973703484
450.49301;11.5;99.77743;1;0.05734212045014343;1.941811401295045;0.029094299352477537
459.82001;12.0;99.75948;1;0.06196669277381687;1.9370423921289726;0.03147880393551372
469.14099;12.5;99.73772;1;0.06757285955727879;1.9312453396114344;0.034377330194282796
478.50201;13.0;99.71087;1;0.07449039531720193;1.9240681949274023;0.037965902536298834
487.90302;13.5;99.67884;1;0.08274248732429364;1.9154712346320488;0.04226438268397559
497.38;14.0;99.6404;1;0.09264602827816495;1.9051025922210436;0.047448703889478194
506.93701;14.5;99.596;1;0.10408508182530107;1.8930556443746696;0.05347217781266522
516.54401;15.0;99.54797;1;0.11645935529081829;1.8799368550131483;0.06003157249342583
526.23102;15.5;99.48966;1;0.13148213034337763;1.8638861227624637;0.06805693861876816
535.97803;16.0;99.43583;1;0.14535069458757693;1.8489448941625308;0.07552755291873459
545.79999;16.5;99.38404;1;0.15869368069582462;1.834455035485117;0.0827724822574415
555.67603;17.0;99.33507;1;0.17131013232202447;1.8206480908489433;0.08967595457552835
565.60199;17.5;99.29614;1;0.18133991508306357;1.8095967339901302;0.0952016330049349
575.57599;18.0;99.25921;1;0.19085442516179676;1.7990503882195221;0.10047480589023894
585.57397;18.5;99.22747;1;0.19903180262995274;1.7899365322491714;0.10503173387541431
595.55798;19.0;99.19996;1;0.20611937837503508;1.7819995753366105;0.10900021233169477
605.505;19.5;99.17572;1;0.21236448328455473;1.7749766383988779;0.11251168080056106
615.367;20.0;99.15364;1;0.21805309369718576;1.7685552366865043;0.11572238165674786
625.17603;20.5;99.13299;1;0.22337328414196636;1.7625285425865123;0.11873572870674387
634.90802;21.0;99.11255;1;0.2286393709551099;1.7565427737973136;0.1217286131013432
644.61102;21.5;99.09268;1;0.23375860505379423;1.7507043096379307;0.12464784518103467
654.31097;22.0;99.07259;1;0.23893451914753167;1.7447813397127656;0.1276093301436172
664.09497;22.5;99.05159;1;0.24434488231171836;1.738568511952614;0.13071574402369301
673.99298;23.0;99.02971;1;0.24998196545612097;1.7320716319412186;0.1339641840293907
683.909;23.5;99.00677;1;0.2558921431221396;1.7252337312698942;0.1373831343650529
693.83698;24.0;98.98266;1;0.2621037553073099;1.7180177469312592;0.1409911265343704
703.74799;24.5;98.95776;1;0.26851890020198876;1.7105333668748017;0.14473331656259913
713.63098;25.0;98.93169;1;0.275235479615812;1.7026620573492415;0.14866897132537926
723.52301;25.5;98.90492;1;0.2821324044684438;1.6945413486032805;0.15272932569835973
733.39301;26.0;98.87778;1;0.2891246547673027;1.6862684783066986;0.15686576084665071
743.22302;26.5;98.84991;1;0.29630497959520347;1.6777306344044582;0.16113468279777088
753.08197;27.0;98.822;1;0.30349560987674623;1.6691367710565288;0.1654316144717356
762.909;27.5;98.79367;1;0.31079444742157414;1.660368094825272;0.16981595258736404
772.74799;28.0;98.76568;1;0.31800568861041195;1.651658937419694;0.17417053129015303
782.58698;28.5;98.73777;1;0.32519631889195844;1.6429287033928668;0.1785356483035666
792.45697;29.0;98.70974;1;0.3324178655344419;1.6341139916977128;0.18294300415114362
802.32098;29.5;98.68186;1;0.33960076672575135;1.6252990288242328;0.1873504855878836
812.21503;30.0;98.65465;1;0.34661105156848926;1.6166495581065312;0.1916752209467344
822.12402;30.5;98.62787;1;0.3535105527845334;1.608091349663279;0.19595432516836053
832.05603;31.0;98.60147;1;0.36031215219093804;1.5996097621720893;0.20019511891395536
842.026;31.5;98.57622;1;0.3668174698050194;1.591455346775373;0.20427232661231354
852.03003;32.0;98.55067;1;0.3734000783214488;1.58316129522996;0.20841935238501996
862.05402;32.5;98.52524;1;0.3799517704769375;1.5748628251667667;0.21256858741661666
872.06403;33.0;98.4997;1;0.3865318026299509;1.5664842129687093;0.21675789351564534
882.04999;33.5;98.47362;1;0.39325095840719015;1.5578819487917688;0.2210590256041156
892.00897;34.0;98.4475;1;0.3999804196380714;1.5492186164152928;0.2253906917923536
901.96899;34.5;98.41971;1;0.4071401335586808;1.53994787761316;0.23002606119341995
911.97498;35.0;98.39034;1;0.41470691289830736;1.5300890001587393;0.23495549992063036
922.00403;35.5;98.36026;1;0.42245661404015117;1.5199255060164611;0.24003724699176943
932.03601;36.0;98.32732;1;0.43094315511768844;1.508717130389009;0.2456414348054955
942.09998;36.5;98.29276;1;0.4398470670678923;1.4968673059855477;0.25156634700722613
952.14398;37.0;98.25559;1;0.4494234098685032;1.484016967735203;0.25799151613239846
962.14899;37.5;98.21572;1;0.45969537079022127;1.470108335068921;0.2649458324655395
972.14203;38.0;98.17409;1;0.47042077167236757;1.4554438887537127;0.27227805562314367
982.12097;38.5;98.12908;1;0.4820169833876085;1.4394207398983683;0.28028963005081586
992.125;39.0;98.08109;1;0.4943809513994801;1.4221378957056448;0.2889310521471776
1002.15503;39.5;98.02881;1;0.5078501793148955;1.403067811169659;0.29846609441517047
1012.20599;40.0;97.97445;1;0.521855290819901;1.382960171776612;0.308519914111694
1022.258;40.5;97.91381;1;0.537478358547344;1.360178872726166;0.31991056363691694
1032.31604;41.0;97.84811;1;0.5544050661610113;1.335057952058994;0.332471023970503
1042.35498;41.5;97.7796;1;0.5720557318933177;1.3083489872456542;0.3458255063771729
1052.39502;42.0;97.7097;1;0.5900645121398252;1.2805240924874077;0.35973795375629614
1062.43298;42.5;97.63898;1;0.6082845541860746;1.2517434973890225;0.37412825130548877
1072.46997;43.0;97.56879;1;0.6263680489715143;1.2225088155567398;0.3887455922216301
1082.52405;43.5;97.49991;1;0.6441140401500478;1.193123564179255;0.4034382179103725
1092.56799;44.0;97.42902;1;0.6623778803742959;1.1621051925289794;0.4189474037355103
1102.61804;44.5;97.35536;1;0.6813553732635302;1.1289723233746163;0.43551383831269186
1112.66895;45.0;97.27779;1;0.7013402242466727;1.092995472549319;0.4535022637253405
1122.68201;45.5;97.19462;1;0.7227678387402616;1.0530568099770086;0.4734715950114957
1132.72095;46.0;97.10517;1;0.7458134094562844;1.008338416492629;0.4958307917536855
1142.74304;46.5;97.01139;1;0.7699745455294932;0.9592193794341456;0.5203903102829273
1152.77405;47.0;96.91485;1;0.794846757904283;0.9058769057564432;0.5470615471217783
1162.81299;47.5;96.82168;1;0.8188507358093906;0.851232668993876;0.5743836655030621
1172.88599;48.0;96.73741;1;0.8405617502782485;0.7985943894662708;0.6007028052668646
1182.99902;48.5;96.67211;1;0.8573854033554553;0.7552869564464745;0.6223565217767628
1193.104;49.0;96.62882;1;0.8685384805639137;0.7251524513813252;0.6374237743093374
1203.18103;49.5;96.6032;1;0.8751391236242222;0.7067131706025516;0.6466434146987242
1213.18103;50.0;96.59025;1;0.8784755142421381;0.6972072453951175;0.6513963773024413
1223.12195;50.5;96.58308;1;0.8803227668081965;0.6918879481297632;0.6540560259351185
1233.01794;51.0;96.57744;1;0.8817758357722923;0.6876748191629751;0.6561625904185124
1242.94104;51.5;96.5732;1;0.8828682138587746;0.6844904269344472;0.6577547865327764
1252.90698;52.0;96.56978;1;0.8837493301455149;0.681911049491017;0.6590444752544915
1262.90002;52.5;96.56614;1;0.8846871264273047;0.6791549854714909;0.6604225072642546
1272.87903;53.0;96.55749;1;0.886915680778268;0.6725602403405423;0.6637198798297288
1282.828;53.5;96.53921;1;0.8916252730945229;0.6584063392935311;0.6707968303532345
1292.73096;54.0;96.50611;1;0.9001530359866429;0.6319714044586421;0.6840142977706789
1302.61694;54.5;96.44478;1;0.9159538727894821;0.5798142020010129;0.7100928989994936
1312.51294;55.0;96.36055;1;0.9376545818046906;0.49938128997914755;0.7503093550104263
1322.40698;55.5;96.24984;1;0.9661775011335989;0.3678178835587041;0.816091058220648
1331.49304;56.0;96.11856;2;1.0;0.0;1.0
