##Temp./Â°C;Time/min;Mass/%;Segment;Alpha;F_alpha;G_alpha
120.524;0.0;100.0;1;0.0;2.0;0.0
129.022;0.5;99.98645;1;0.004706838637064561;1.995287609707368;0.0023561951463160202
137.681;1.0;99.97589;1;0.008375046460489732;1.9916073443723894;0.004196327813805301
146.403;1.5;99.96781;1;0.011181781234476983;1.9887867847162732;0.0056066076418633815
155.10699;2.0;99.96158;1;0.013345884903032935;1.9866092873003158;0.006695356349842085
163.771;2.5;99.95623;1;0.015204304586300166;1.9847374591252112;0.007631270437394422
172.30701;3.0;99.9517;1;0.01677788237419112;1.9831511466611;0.00842442666944998
180.67599;3.5;99.9474;1;0.01827156548410905;1.9816442006736639;0.009177899663168065
188.91;4.0;99.94332;1;0.019688827597706036;1.9802132939683987;0.009893353015800632
196.935;4.5;99.93932;1;0.021078300258096302;1.978809439781308;0.010595280109345961
204.716;5.0;99.93562;1;0.022363562468953966;1.9775099873639537;0.011245006318023165
212.235;5.5;99.93204;1;0.023607140500001553;1.976251866033273;0.011874066983363463
219.492;6.0;99.92868;1;0.024774297534728193;1.975070330358159;0.012464834820920534
226.481;6.5;99.92521;1;0.025979665067612834;1.9738493710842144;0.013075314457892784
233.21201;7.0;99.92208;1;0.02706692742437139;1.9727473964759186;0.013626301762040716
239.69099;7.5;99.91891;1;0.02816808450772837;1.971630711357755;0.014184644321122541
245.929;8.0;99.91563;1;0.02930745208924829;1.970474610758283;0.014762694620858552
251.942;8.5;99.91261;1;0.030356503947838967;1.9694095521776684;0.015295223911165778
257.746;9.0;99.90943;1;0.03146113471284802;1.9682874437308713;0.01585627813456436
263.35999;9.5;99.90616;1;0.032597028612715864;1.9671329099857835;0.016433545007108252
268.79001;10.0;99.90329;1;0.03359397524654518;1.9661190449751051;0.016940477512447427
274.069;10.5;99.90034;1;0.03461871133358121;1.965076373748785;0.01746181312560746
279.207;11.0;99.89744;1;0.03562607901236181;1.9640508353783903;0.017974582310804843
284.24301;11.5;99.89465;1;0.0365952361929844;1.9630636910778168;0.018468154461091624
289.16501;12.0;99.89204;1;0.03750186710388941;1.9621397839054286;0.018930108047285676
294.017;12.5;99.88944;1;0.03840502433314234;1.961218983863717;0.019390508068141465
298.806;13.0;99.88687;1;0.03929776051743905;1.9603083833749841;0.01984580831250793
303.55099;13.5;99.8845;1;0.04012102306871897;1.9594682716811527;0.020265864159423663
308.263;14.0;99.88212;1;0.040947759301650954;1.958624252579702;0.02068787371014902
312.94199;14.5;99.88023;1;0.04160428513368561;1.9579537429329779;0.02102312853351107
317.61401;15.0;99.87827;1;0.042285126737274914;1.9572581569764629;0.02137092151176856
322.289;15.5;99.87631;1;0.04296596834086422;1.9565623237291838;0.02171883813540809
326.94501;16.0;99.87442;1;0.04362249417289888;1.9558911072215663;0.02205444638921683
331.62799;16.5;99.87261;1;0.044251230551726826;1.9552480859965296;0.022375957001735225
336.284;17.0;99.8708;1;0.044879966930549825;1.9546048532319265;0.022697573384036773
340.98999;17.5;99.86895;1;0.045522598035981125;1.953947186557527;0.02302640672123646
345.69601;18.0;99.86695;1;0.04621733436617379;1.953235946457904;0.023382026771047948
350.423;18.5;99.8648;1;0.04696417592113276;1.9524710743863707;0.023764462806814657
355.15201;19.0;99.86273;1;0.04768322802288501;1.9517343794452306;0.024132810277384675
359.89301;19.5;99.86042;1;0.04848564848425741;1.9509119421601198;0.02454402891994012
364.66699;20.0;99.8579;1;0.049361016260303626;1.950014342244381;0.024992828877809514
369.46301;20.5;99.85521;1;0.05029543662441535;1.949055733811206;0.025472133094396998
374.27399;21.0;99.85223;1;0.05133059375640267;1.9479932302178027;0.026003384891098658
379.12;21.5;99.84929;1;0.05235185616179156;1.9469444202012633;0.026527789899368326
384.005;22.0;99.84589;1;0.05353290792312156;1.9457308057147868;0.027134597142606576
388.923;22.5;99.84242;1;0.05473827545600621;1.9444914240427946;0.027754287978602687
393.88199;23.0;99.83804;1;0.056259748019130855;1.9429258884279341;0.02853705578603294
398.867;23.5;99.83431;1;0.057555431274944745;1.9415916859371387;0.029204157031430644
403.888;24.0;99.83004;1;0.05903869333991139;1.9400632017128603;0.029968399143569857
408.90601;24.5;99.82544;1;0.06063658689935699;1.9384152425119268;0.03079237874403662
413.95499;25.0;99.8205;1;0.06235258563493855;1.9366439160207656;0.03167804198961721
419.01401;25.5;99.81499;1;0.06426658422462415;1.9346662924394749;0.03266685378026257
424.064;26.0;99.80902;1;0.06634037217025086;1.9325212835358363;0.03373935823208185
429.10199;26.5;99.80276;1;0.0685148968837581;1.9302695180893696;0.03486524095531518
434.12701;27.0;99.79559;1;0.07100552662750534;1.927687187665566;0.03615640616721705
439.13699;27.5;99.78779;1;0.07371499831526414;1.9248740236023092;0.037562988198845404
444.103;28.0;99.77892;1;0.07679615393967638;1.921669946749778;0.03916502662511101
449.07001;28.5;99.76903;1;0.08023162509248664;1.9180911082714642;0.040954445864267885
454.01999;29.0;99.75786;1;0.08411172749662416;1.9140410366586982;0.04297948167065091
458.953;29.5;99.74522;1;0.08850246110344871;1.909447604828738;0.04527619758563095
463.862;30.0;99.73107;1;0.09341772063957354;1.9042922878176307;0.04785385609118464
468.759;30.5;99.71507;1;0.09897561128112967;1.8984460895362505;0.050776955231874754
473.66299;31.0;99.69711;1;0.10521434352627511;1.8918622111282046;0.054068894435897685
478.55301;31.5;99.67757;1;0.11200191747227052;1.8846730034971366;0.05766349825143169
483.439;32.0;99.65583;1;0.11955370138148527;1.8766419995497434;0.06167900022512829
488.332;32.5;99.63239;1;0.1276960111713601;1.8679443126909752;0.06602784365451242
493.237;33.0;99.60673;1;0.13660947828775347;1.858376196266242;0.07081190186687902
498.13901;33.5;99.579;1;0.14624199750589909;1.8479805220771142;0.07600973896144292
503.06;34.0;99.54994;1;0.1563365163836175;1.8370231175642646;0.08148844121786769
508.008;34.5;99.51893;1;0.16710840318328304;1.8252578960976633;0.08737105195116834
512.95801;35.0;99.48671;1;0.17830060546271131;1.8129527236387482;0.09352363818062592
517.92798;35.5;99.45353;1;0.18982628118063502;1.8001930105623285;0.09990349471883575
522.91699;36.0;99.41984;1;0.2015291146627602;1.7871439621219547;0.10642801893902265
527.93201;36.5;99.38693;1;0.2129610009761026;1.7743043696321072;0.11284781518394638
532.96002;37.0;99.3546;1;0.2241914137536938;1.7615999389717363;0.11920003051413186
538.013;37.5;99.32347;1;0.23500498473316941;1.7492798692797338;0.1253600653601331
543.05701;38.0;99.29445;1;0.24508560888428943;1.7377161921507327;0.13114190392463365
548.13202;38.5;99.26736;1;0.2544958124767714;1.7268516873469228;0.13657415632653858
553.20398;39.0;99.2423;1;0.26320085869410453;1.716740098332762;0.14162995083361896
558.28497;39.5;99.21947;1;0.2711312739032719;1.7074761797421691;0.14626191012891543
563.35303;40.0;99.198;1;0.2785892684079103;1.6987180243843765;0.15064098780781177
568.422;40.5;99.17831;1;0.28542894757867204;1.6906460923816409;0.15467695380917956
573.46899;41.0;99.16024;1;0.29170589032197547;1.6832042177680338;0.15839789111598312
578.49799;41.5;99.14344;1;0.29754167549560867;1.6762557376538836;0.1618721311730582
583.50702;42.0;99.12755;1;0.30306135563900183;1.669657023895624;0.16517148805218795
588.49402;42.5;99.11228;1;0.3083656675200355;1.6632911140025544;0.16835444299872282
593.48999;43.0;99.09755;1;0.3134824005919165;1.6571271519205562;0.17143642403972192
598.46997;43.5;99.0831;1;0.318501870577569;1.6510579994929686;0.1744710002535157
603.42603;44.0;99.06899;1;0.3234032353870905;1.6451100444808056;0.17744497775959722
608.396;44.5;99.05507;1;0.32823860024524226;1.6392210342168718;0.1803894828915641
613.35901;45.0;99.04141;1;0.33298364938046976;1.633421379337898;0.183289310331051
618.31403;45.5;99.0276;1;0.33778080374045866;1.6275370303124184;0.18623148484379082
623.26898;46.0;99.01371;1;0.3426057475536592;1.6215970553085508;0.1892014723457246
628.22699;46.5;98.99986;1;0.3474167966402563;1.6156524420304554;0.19217377898477228
633.18201;47.0;98.9859;1;0.3522660562250115;1.6096383988647742;0.1951808005676129
638.15302;47.5;98.97191;1;0.3571257368547229;1.6035888040832376;0.19820559795838122
643.12201;48.0;98.95756;1;0.36211047002386454;1.5973597340312988;0.20132013298435059
648.08899;48.5;98.94311;1;0.367129940009517;1.5910626134636978;0.2044686932681511
653.05701;49.0;98.92878;1;0.37210772581535945;1.5847930769468177;0.20760346152659115
658.01703;49.5;98.91403;1;0.3772314062505445;1.5783137758373085;0.21084311208134576
663.04303;50.0;98.89919;1;0.3823863498205835;1.571767985651084;0.214116007174458
668.06598;50.5;98.88429;1;0.38756213548053486;1.5651681884314734;0.21741590578426329
673.12;51.0;98.86885;1;0.3929254999496341;1.5582997144970103;0.22085014275149484
678.16101;51.5;98.85323;1;0.3983513906884509;1.551320223953197;0.22433988802340155
683.19598;52.0;98.83746;1;0.403829386652034;1.5442417082153506;0.22787914589232472
688.19299;52.5;98.82138;1;0.4094150667467919;1.5369904791549076;0.2315047604225462
693.20099;53.0;98.80543;1;0.4149555889800926;1.5297639177597402;0.2351180411201299
698.18103;53.5;98.78908;1;0.42063505847943183;1.5223205201541077;0.23883973992294616
703.15802;54.0;98.7727;1;0.42632494902372237;1.5148267900671384;0.2425866049664308
708.117;54.5;98.75626;1;0.4320356816579204;1.5072681491255357;0.24636592543723213
713.08197;55.0;98.73943;1;0.4378818878765049;1.4994907297125848;0.2502546351437076
718.03497;55.5;98.72249;1;0.4437663045932523;1.4916215276091287;0.25418923619543565
723.00299;56.0;98.70584;1;0.4495499845421192;1.4838463740669123;0.25807681296654383
727.96802;56.5;98.68879;1;0.45547261175702464;1.4758419810304562;0.2620790094847719
732.93298;57.0;98.67192;1;0.46133271270221243;1.4678791330321275;0.26606043348393627
737.91199;57.5;98.65525;1;0.4671233400143835;1.459968027027464;0.270015986486268
742.88599;58.0;98.6386;1;0.4729070199632504;1.4520233882920064;0.2739883058539968
747.84601;58.5;98.62211;1;0.47863512100569894;1.4441120164229657;0.27794399178851714
752.82599;59.0;98.60577;1;0.48431111682338607;1.4362296239482237;0.28188518802588813
757.79498;59.5;98.58933;1;0.4900218494575841;1.428255090020569;0.2858724549897155
762.76703;60.0;98.57336;1;0.49556931905418894;1.4204656714554014;0.2897671642722993
767.74402;60.5;98.55721;1;0.5011793149205064;1.4125447746241442;0.2937276126879279
772.71899;61.0;98.54152;1;0.5066295214308779;1.4048067177645787;0.29759664111771067
777.70801;61.5;98.52608;1;0.511992885899982;1.3971501194932747;0.30142494025336264
782.68597;62.0;98.51076;1;0.5173145661892663;1.3895113296561978;0.3052443351719011
787.66602;62.5;98.49544;1;0.5226362464785554;1.3818303130579306;0.3090848434710347
792.651;63.0;98.48035;1;0.5278780320898715;1.3742226426749466;0.3128886786625267
797.646;63.5;98.46566;1;0.5329808704351491;1.3667759575948808;0.3166120212025596
802.66199;64.0;98.45114;1;0.5380246561923612;1.3593753621537192;0.3203123189231404
807.66302;64.5;98.43695;1;0.5429538104550894;1.3521038267010572;0.3239480866494714
812.65997;65.0;98.42288;1;0.5478412805380025;1.344854965357971;0.32757251732101444
817.67401;65.5;98.40926;1;0.5525724349466267;1.3378005308017684;0.3310997345991158
822.664;66.0;98.39574;1;0.5572688525387399;1.33076090634082;0.33461954682959005
827.67401;66.5;98.38265;1;0.5618159018198634;1.3239095107750176;0.3380452446124912
832.71198;67.0;98.36952;1;0.5663768458275902;1.3170013730781147;0.34149931346094264
837.74103;67.5;98.35646;1;0.5709134740637575;1.3100939293596356;0.3449530353201822
842.76599;68.0;98.34375;1;0.5753285234421416;1.3033364516622075;0.34833177416889627
847.79602;68.5;98.33077;1;0.5798373622251021;1.2963990709266926;0.3518004645366537
852.83301;69.0;98.31802;1;0.5842663063300896;1.2895482831905294;0.3552258584047353
857.84198;69.5;98.30541;1;0.5886466188919678;1.282736732315766;0.35863163384211705
862.83698;70.0;98.2927;1;0.593061668270352;1.275834365001426;0.36208281749928695
867.828;70.5;98.28002;1;0.5974662966037848;1.2689108769274777;0.36554456153626114
872.81097;71.0;98.2673;1;0.6018848196638161;1.2619273835465872;0.3690363082267064
877.79102;71.5;98.25473;1;0.6062512374990909;1.2549880676738072;0.3725059661630964
882.78699;72.0;98.24187;1;0.6107183921022364;1.2478487214366387;0.37607563928168064
887.77502;72.5;98.22862;1;0.6153210202897733;1.2404498856628214;0.3797750571685893
892.78601;73.0;98.215;1;0.6200521746983975;1.2327981591511281;0.38360092042443594
897.79901;73.5;98.2013;1;0.6248111185602283;1.2250532746615908;0.3874733626692046
902.82703;74.0;98.18723;1;0.6296985886431464;1.2170479224038033;0.39147603879809834
907.85999;74.5;98.17301;1;0.634638163950826;1.2089033642920746;0.3955483178539627
912.89398;75.0;98.15878;1;0.6395812129401623;1.2006977755619233;0.3996511122190384
917.93201;75.5;98.14372;1;0.6448125775065223;1.1919520501991305;0.40402397490043473
922.95697;76.0;98.12848;1;0.6501064683426048;1.1830359785862732;0.4084820107068634
927.99402;76.5;98.11282;1;0.6555462538080249;1.1738036397830347;0.41309818010848265
933.034;77.0;98.09648;1;0.6612222496257121;1.1640923509314678;0.4179538245342661
938.05701;77.5;98.07991;1;0.6669781401213722;1.1541609244444688;0.4229195377777656
943.065;78.0;98.06313;1;0.6728069779317013;1.1440157727379439;0.42799211363102807
948.08002;78.5;98.04596;1;0.6787712893264217;1.1335408429758114;0.4332295785120943
953.08197;79.0;98.02837;1;0.6848814953504799;1.1227083408428389;0.43864582957858056
958.065;79.5;98.01053;1;0.6910785434158103;1.1116140635745657;0.44419296821271714
963.04999;80.0;97.99226;1;0.6974249597921355;1.1001364282812647;0.44993178585936766
968.03998;80.5;97.97407;1;0.7037435867152539;1.0885888356670688;0.4557055821664656
973.02502;81.0;97.95554;1;0.7101803188145034;1.0766980657278002;0.4616509671360999
978.02301;81.5;97.93717;1;0.7165614720073394;1.0647789028576038;0.4676105485711981
983.026;82.0;97.91891;1;0.7229044147020126;1.0527973884807795;0.47360130575961024
988.04498;82.5;97.90087;1;0.7291709364003647;1.0408247952458383;0.47958760237708087
993.05701;83.0;97.88287;1;0.7354235633721136;1.0287398828234209;0.48563005858828956
998.10101;83.5;97.86537;1;0.7415025062613129;1.016852976076064;0.49157351196196797
1003.13202;84.0;97.84778;1;0.7476127122853711;1.0047632312433192;0.4976183843783404
1008.17499;84.5;97.8308;1;0.7535110237287219;0.9929531233069929;0.5035234383465035
1013.19501;85.0;97.81401;1;0.759343335220703;0.9811353928572693;0.5094323035713654
1018.229;85.5;97.7977;1;0.765008909993434;0.9695175913959809;0.5152412043020096
1023.25098;86.0;97.78179;1;0.7705355375001313;0.9580489810022632;0.5209755094988684
1028.27295;86.5;97.76624;1;0.7759371124673934;0.9467056301355911;0.5266471849322045
1033.28503;87.0;97.75111;1;0.781192792805313;0.935536652824863;0.5322316735875685
1038.297;87.5;97.73627;1;0.7863477363753518;0.9244506771583829;0.5377746614208085
1043.30701;88.0;97.72186;1;0.791353311634401;0.9135571976961244;0.5432214011519378
1048.32605;88.5;97.70775;1;0.7962546764439224;0.9027631440329795;0.5486184279835102
1053.32996;89.0;97.69406;1;0.8010101466241062;0.8921655751616823;0.5539172124191589
1058.34204;89.5;97.68076;1;0.8056301432198936;0.8817479385405025;0.5591260307297488
1063.35999;90.0;97.66775;1;0.8101494030478104;0.8714369672034568;0.5642815163982716
1068.375;90.5;97.65504;1;0.8145644524261945;0.8612445589350461;0.5693777205324769
1073.39502;91.0;97.6424;1;0.818955186033024;0.8509872242683224;0.5745063878658387
1078.41003;91.5;97.63017;1;0.8232034986921579;0.8409435208332177;0.5795282395833912
1083.43396;92.0;97.61771;1;0.8275317060292698;0.8305860436360104;0.5847069781819948
1088.44397;92.5;97.60518;1;0.8318842291379364;0.820038464615078;0.589980767692461
1093.43994;93.0;97.59262;1;0.8362471732915592;0.809327688167014;0.595336155916493
1098.45898;93.5;97.58021;1;0.8405580122204156;0.7986037510044249;0.6006981244977876
1103.45105;94.0;97.56783;1;0.8448584301043158;0.787760293225507;0.6061198533872465
1108.45605;94.5;97.55549;1;0.8491449532616128;0.7768012531874218;0.6115993734062891
1113.45398;95.0;97.54296;1;0.8534974763702843;0.7655129616922648;0.6172435191538677
1118.46997;95.5;97.53096;1;0.8576658943514501;0.7545438506768175;0.6227280746615913
1123.46704;96.0;97.51912;1;0.8617787334261976;0.7435624158705237;0.6282187920647382
1128.48499;96.5;97.50746;1;0.8658290462312325;0.732587069961701;0.6337064650191495
1133.49304;97.0;97.49675;1;0.8695493592794189;0.7223590263036272;0.6388204868481864
1138.50806;97.5;97.4867;1;0.8730404093386476;0.7126277868883655;0.6436861065558173
1143.51196;98.0;97.47783;1;0.8761215649630598;0.7039273685173497;0.6480363157413251
1148.52502;98.5;97.47044;1;0.8786886157031281;0.696595676980189;0.6517021615099055
1153.54602;99.0;97.46482;1;0.8806408247909716;0.690967944868728;0.654516027565636
1158.55298;99.5;97.46127;1;0.8818739817770679;0.6873893168297922;0.6563053415851039
1163.56702;100.0;97.4598;1;0.8823846129797599;0.6859019959738858;0.657049002013057
1168.58997;100.5;97.4598;1;0.8823846129797599;0.6859019959738858;0.657049002013057
1173.59705;101.0;97.46203;1;0.8816099819715942;0.6881570112362607;0.6559214943818696
1178.61597;101.5;97.46667;1;0.8799981936855452;0.6928255373886121;0.653587231305694
1183.62598;102.0;97.47293;1;0.8778236689720331;0.699074619845312;0.650462690077344
1188.61804;102.5;97.48037;1;0.8752392498237144;0.7064297563842724;0.6467851218078637
1193.60706;103.0;97.48814;1;0.8725401991809069;0.7140302537542598;0.6429848731228701
1198.60901;103.5;97.49647;1;0.8696466223656474;0.7220896831678254;0.6389551584160873
1203.60706;104.0;97.50531;1;0.8665758877861914;0.7305453092418254;0.6347273453790874
1208.61096;104.5;97.51402;1;0.8635503110681926;0.7387819405800535;0.6306090297099732
1213.62903;105.0;97.52273;1;0.8605247343501987;0.7469277492496882;0.6265361253751559
1218.64294;105.5;97.53126;1;0.8575616839019174;0.7548200211920257;0.6225899894039871
1223.64905;106.0;97.53972;1;0.8546229492251959;0.7625668515607117;0.6187165742196441
1228.65796;106.5;97.54791;1;0.8517780039530506;0.7699921974850119;0.615003901257494
1233.66699;107.0;97.55572;1;0.8490650585836447;0.777006927681743;0.6114965361591285
1238.66895;107.5;97.56312;1;0.8464945341619244;0.7835954717533162;0.6082022641233419
1243.68103;108.0;97.57032;1;0.8439934833732259;0.789953205264145;0.6050233973679275
1248.68005;108.5;97.57647;1;0.8418571691578767;0.795343525382896;0.602328237308552
1253.68103;109.0;97.58202;1;0.8399292758415877;0.8001767908616503;0.5999116045691748
1258.68799;109.5;97.58677;1;0.8382792770573758;0.8042903031682632;0.5978548484158683
1263.68799;110.0;97.591;1;0.8368099097190174;0.8079358644867367;0.5960320677566316
1268.69104;110.5;97.59383;1;0.8358268578117914;0.8103657006270899;0.594817149686455
1273.69202;111.0;97.5953;1;0.8353162266090994;0.8116249710079171;0.5941875144960415
1278.69397;111.5;97.5956;1;0.8352120161595669;0.8118817249832223;0.5940591375083888
1283.72205;112.0;97.59266;1;0.8362332785649558;0.8093620239053577;0.5953189880473211
1288.71997;112.5;97.58549;1;0.838723908308703;0.8031838934921366;0.5984080532539318
1293.72705;113.0;97.57454;1;0.8425275897165146;0.7936558707235406;0.6031720646382297
1298.70801;113.5;97.55814;1;0.8482244276241093;0.779167690233343;0.6104161548833285
1303.66699;114.0;97.53459;1;0.856404947912147;0.7578787557066181;0.621060622146691
1308.62402;114.5;97.50188;1;0.8677673605924726;0.727276121999141;0.6363619390004295
1313.59595;115.0;97.45294;1;0.8847675585923274;0.6789180846248615;0.6605409576875693
1318.56799;115.5;97.39569;1;0.9046543860441375;0.6175617020374968;0.6912191489812516
1323.55603;116.0;97.32509;1;0.9291785784999953;0.5322458886642703;0.7338770556678649
1328.53796;116.5;97.24276;1;0.9577773995324427;0.4109627743120164;0.7945186128439918
1329.93553;117.0;97.12121;2;1.0;0.0;1.0
