##Temp./Â°C;Time/min;Mass/%;Segment;Alpha;F_alpha;G_alpha
118.956;0.0;100.0;1;0.0;-inf;0.0
135.01401;0.5;99.98862;1;0.00926513930275557;107.43068300659615;4.30545782601089e-05
152.035;1.0;99.98025;1;0.01607965740152886;61.68902889125838;0.00012997622997296815
169.905;1.5;99.97407;1;0.021111165388437568;46.86652118134262;0.00022442555929799365
188.27299;2.0;99.9695;1;0.02483187598717159;39.768724245211466;0.0003108951782323163
206.91499;2.5;99.96511;1;0.02840603780958766;34.7013819108878;0.0004073268451240744
225.54601;3.0;99.96062;1;0.03206161561883804;30.687228611623755;0.0005195563266370828
243.96001;3.5;99.95486;1;0.036751176461012565;26.706893071819316;0.0006837529329874331
261.983;4.0;99.94806;1;0.04228746356634721;23.144069866572078;0.0009069915078474197
279.45901;4.5;99.94004;1;0.0488170257111715;19.980485875653983;0.0012114279189859162
296.271;5.0;99.93195;1;0.055403579046780956;17.54462592384011;0.0015639346420703304
312.32901;5.5;99.92393;1;0.061933141191605236;15.641116589733919;0.0019587235452271645
327.59201;6.0;99.91688;1;0.06767296826404301;14.27111016442574;0.002343290264638878
341.98999;6.5;99.91121;1;0.07228925471805855;13.327062208163543;0.0026782083530413198
355.547;7.0;99.90577;1;0.07671828440232165;12.528051290862816;0.003021131176978234
368.246;7.5;99.90069;1;0.0808542165339604;11.860913731746706;0.0033605424162681946
380.19199;8.0;99.89518;1;0.08534023740902023;11.210369337930958;0.003749726425927677
391.47299;8.5;99.88981;1;0.08971227590249814;10.638914802775284;0.004150191707591094
402.159;9.0;99.8838;1;0.0946053767117758;10.061943083351867;0.004623291165470347
412.39301;9.5;99.87726;1;0.09992998225130884;9.49823474109784;0.005168161525381201
422.254;10.0;99.87018;1;0.10569423411980731;8.95194701767236;0.0057935349629968935
431.862;10.5;99.8622;1;0.11219122986989556;8.403438449018504;0.006542955593096672
441.28;11.0;99.85285;1;0.1198036246397307;7.836361562608119;0.007481551656242688
450.64099;11.5;99.8417;1;0.12888150717274538;7.247570607215214;0.008686956469089555
459.92499;12.0;99.82805;1;0.1399947893768376;6.630559693548683;0.010291528962800583
469.237;12.5;99.811;1;0.15387621513359714;5.9848124991881875;0.0124977199875628
478.577;13.0;99.78987;1;0.17107941315357136;5.329611918366408;0.015548278890327838
487.98901;13.5;99.76429;1;0.19190562258804836;4.6931517965181095;0.01971976275468776
497.45001;14.0;99.73352;1;0.2169573217396969;4.088841056256118;0.025450078614603744
506.96701;14.5;99.69768;1;0.2461368114242857;3.5392670626575145;0.033137008010280466
516.53601;15.0;99.65719;1;0.27910214449709214;3.055694720734684;0.043182682185889276
526.14301;15.5;99.61257;1;0.3154299578265131;2.638770893482106;0.056002341785875265
535.78101;16.0;99.56559;1;0.3536791884454412;2.2911644492772836;0.0715864684058859
545.466;16.5;99.5183;1;0.39218080862358234;2.0085248872346986;0.08956111232833136
555.20203;17.0;99.47367;1;0.42851676355169016;1.7872457998540507;0.10876038952917011
564.992;17.5;99.43413;1;0.4607086447494839;1.6194350175454244;0.12769660696613444
574.84601;18.0;99.40127;1;0.4874619380261512;1.496154202662025;0.14489159262865264
584.758;18.5;99.37569;1;0.5082881474606281;1.4087237195859903;0.15924039189086953
594.70001;19.0;99.35589;1;0.52440851285558;1.3455400484014608;0.17095081554702646
604.65997;19.5;99.34114;1;0.5364173709149537;1.3007780874852857;0.18002865746325175
614.61401;20.0;99.3298;1;0.5456499438229617;1.2676081399563695;0.18721894148443396
624.53601;20.5;99.3208;1;0.5529773826388478;1.2420106307337273;0.19305887123522947
634.42798;21.0;99.31338;1;0.55901844886262;1.221370706419672;0.19796381670259872
644.26898;21.5;99.30723;1;0.564025532053468;1.2045702400432572;0.20209191170196744
654.09802;22.0;99.30187;1;0.5683894289482705;1.1901481159573606;0.20573660845916691
663.935;22.5;99.2969;1;0.5724358034943765;1.1769540607271962;0.20915552708201812
673.87402;23.0;99.29248;1;0.5760343901128417;1.1653613550126545;0.21222825559197078
683.85303;23.5;99.28791;1;0.5797551007115758;1.1535121090369138;0.21543738267800128
693.83698;24.0;99.28341;1;0.5834188201195131;1.1419775895112394;0.21862954254815414
703.80499;24.5;99.27903;1;0.5869848403432422;1.130875062110449;0.22176752015051876
713.72601;25.0;99.27453;1;0.590648559751191;1.1195936191332492;0.22502353898185617
723.65399;25.5;99.27007;1;0.5942797127643923;1.1085352391726742;0.2282829695860642
733.54303;26.0;99.26565;1;0.5978782993828691;1.0976942403853605;0.2315452297331999
743.409;26.5;99.2612;1;0.6015013107973834;1.0868961870853908;0.23486216536876037
753.26801;27.0;99.25693;1;0.6049777734355913;1.0766426990947002;0.23807589698524728
763.11902;27.5;99.25263;1;0.6084786608698485;1.0664218060311386;0.24134312696018317
772.995;28.0;99.24833;1;0.6119795483041055;1.0563039249598585;0.2446416614259137
782.85699;28.5;99.24437;1;0.6152036213830889;1.0470754973208938;0.24770731419084474
792.724;29.0;99.24031;1;0.6185091104489299;1.0377014482186988;0.25087842996184845
802.60797;29.5;99.23605;1;0.6219774314884393;1.0279590679751698;0.25423655513606325
812.51898;30.0;99.23232;1;0.6250142477976934;1.0195059547365102;0.2572030050480411
822.422;30.5;99.22881;1;0.6278719489358935;1.0116161242777162;0.2600169472871186
832.34601;31.0;99.22525;1;0.6307703580675049;1.003676977984019;0.2628933916413863
842.28699;31.5;99.22188;1;0.6335140768241232;0.9962191816476332;0.265637278296965
852.23102;32.0;99.21832;1;0.6364124859557346;0.9884008617881409;0.26855817896283096
862.19897;32.5;99.21504;1;0.6390829303241938;0.9812511644020525;0.27126979259840156
872.20001;33.0;99.21156;1;0.6419162066663332;0.9737209650595894;0.27416835468108514
882.16498;33.5;99.20795;1;0.6448553237913792;0.9659688834769815;0.27719888859619346
892.15002;34.0;99.20408;1;0.6480061224822037;0.9577246023842835;0.28047470829330506
902.15399;34.5;99.1999;1;0.6514093107322526;0.9488954738814789;0.28404462319524804
912.15302;35.0;99.19501;1;0.6553905524888866;0.9386643491310023;0.2882631039710576
922.177;35.5;99.18961;1;0.6597870157784136;0.9274859630588858;0.2929750123928848
932.21698;36.0;99.18378;1;0.6645335678113733;0.9155552446044792;0.29812593248233477
942.284;36.5;99.17757;1;0.6695895005943311;0.9030002055588249;0.3036864837714355
952.354;37.0;99.17072;1;0.6751664956930887;0.8893295834285178;0.3099098907630891
962.37299;37.5;99.16321;1;0.6812808363050082;0.8745502079215448;0.31684302495000394
972.34198;38.0;99.15535;1;0.6876801328708884;0.8593077717152201;0.3242249455569112
982.245;38.5;99.14736;1;0.694185270219652;0.8440415345058462;0.33186337339571115
992.16901;39.0;99.13962;1;0.7004868676013241;0.8294645622472383;0.3393947293341799
1002.13702;39.5;99.13219;1;0.7065360754237715;0.8156603113683244;0.3467491390164781
1012.159;40.0;99.12527;1;0.7121700617133142;0.802964245087555;0.3537108400884449
1022.20203;40.5;99.11959;1;0.7167944897660051;0.7926552813309967;0.35950738539139365
1032.27405;41.0;99.11494;1;0.7205803331542112;0.784288846576664;0.36430895677875286
1042.34302;41.5;99.11115;1;0.7236659990555752;0.7775173115617593;0.3682604063628969
1052.40796;42.0;99.10844;1;0.7258723722990198;0.7727010967495198;0.3711069541390894
1062.43604;42.5;99.10633;1;0.7275902496214123;0.7689658244184553;0.3733355588039073
1072.47705;43.0;99.10512;1;0.728575383062215;0.7668295121203882;0.3746184569819199
1082.50098;43.5;99.10438;1;0.7291778613648491;0.7655250458735521;0.3754048005159885
1092.54199;44.0;99.10391;1;0.7295605165030178;0.7646973336618984;0.3759049307015983
1102.56799;44.5;99.10391;1;0.7295605165030178;0.7646973336618984;0.3759049307015983
1112.60706;45.0;99.10383;1;0.7296256492924899;0.7645565082438772;0.37599011314547887
1122.64099;45.5;99.10344;1;0.729943171641175;0.7638702412247443;0.37640560232072084
1132.66296;46.0;99.10282;1;0.7304479507596124;0.7627801285759392;0.37706689225770357
1142.69702;46.5;99.10196;1;0.7311481282464546;0.7612698114480916;0.37798573074886577
1152.71204;47.0;99.10098;1;0.7319460049175164;0.7595512556918204;0.3790350024357515
1162.73096;47.5;99.09973;1;0.7329637047530668;0.7573630690458149;0.3803768066575915
1172.74902;48.0;99.09817;1;0.7342337941478185;0.754638224211083;0.3820568206980309
1182.77295;48.5;99.09655;1;0.7355527331346801;0.7518155876427095;0.3838078754702031
1192.80505;49.0;99.09456;1;0.7371729112728529;0.7483579602589112;0.3859678694554101
1202.83801;49.5;99.09241;1;0.7389233549899815;0.7446342092297593;0.3883127574993384
1212.88696;50.0;99.0903;1;0.740641232312374;0.7409915952863556;0.3906254300583727
1222.93896;50.5;99.0876;1;0.7428394639571433;0.7363473459884143;0.39360138026762476
1232.95801;51.0;99.08454;1;0.745330793154537;0.7311064880500645;0.39699684863615126
1242.99597;51.5;99.08111;1;0.748123361503265;0.7252600167394566;0.40083186233984214
1253.00806;52.0;99.07696;1;0.7515021249572532;0.7182251873295403;0.4055133189022944
1263.01404;52.5;99.07179;1;0.7557113314770509;0.709519423675051;0.4114097375085263
1272.98303;53.0;99.06472;1;0.7614674417468625;0.6977152436861993;0.4195907801550763
1282.95398;53.5;99.05482;1;0.7695276244443269;0.6813733056888667;0.431280772635734
1292.90698;54.0;99.03765;1;0.7835067493853061;0.6535110931975131;0.4522296633982402
1302.82605;54.5;99.00784;1;0.807776855063255;0.6063919648744568;0.4907819803430046
1312.69702;55.0;98.95168;1;0.8535000732743873;0.5206352883630571;0.5721132176384065
1322.53101;55.5;98.87313;1;0.9174523309396962;0.40090133111367243;0.711547130198674
1331.61499;56.0;98.77174;2;1.0;0.0;
