##Temp./Â°C;Time/min;Mass/%;Segment;Alpha;F_alpha;G_alpha
118.782;0.0;100.0;1;0.0;-inf;0.0
129.61099;0.25;99.99258;1;0.005757248935061195;173.19358892406876;1.6604854402799303e-05
141.129;0.5;99.98593;1;0.010917047508945324;91.0989430990884;5.980900711958538e-05
153.289;0.75;99.98035;1;0.015246622853639128;65.08701483312856;0.00011682500269924456
166.007;1.0;99.97545;1;0.01904857969755433;51.99574965692553;0.00018258725057768502
179.242;1.25;99.97093;1;0.02255569090867111;43.832808175348404;0.0002563140313976142
192.946;1.5;99.96651;1;0.025985211163787148;37.98123384828294;0.0003405785347645879
207.041;1.75;99.96176;1;0.029670781573701233;33.200680425798865;0.0004445968695981073
221.457;2.0;99.95663;1;0.033651197616402714;29.21377191454457;0.0005726617392028191
236.08299;2.25;99.95093;1;0.038073882108301815;25.761489142452447;0.0007341882508323377
250.89101;2.5;99.94494;1;0.04272158037258986;22.903735472971242;0.0009258470627506454
265.806;2.75;99.9386;1;0.04764084698288049;20.486323286525522;0.0011532884445694669
280.711;3.0;99.93169;1;0.05300238204234671;18.36253856193816;0.0014301217710687222
295.526;3.25;99.9248;1;0.058348398910619395;16.633421159254624;0.001736377121857223
310.22198;3.5;99.91794;1;0.06367113849209627;15.20022116310367;0.002071451786174773
324.71701;3.75;99.91129;1;0.0688309370659804;14.022408440887947;0.002425150438140969
338.905;4.0;99.90537;1;0.0734243216610635;13.11311093883665;0.002764073100614786
352.73001;4.25;99.90006;1;0.07754440142457293;12.389111896443586;0.0030874422586599226
366.133;4.5;99.89501;1;0.08146274470247823;11.76846983652853;0.0034120492376825823
379.08401;4.75;99.89017;1;0.08521814697279077;11.227168330693619;0.0037388437253000756
391.534;5.0;99.88467;1;0.0894856495526884;10.667165164483203;0.00412891827426877
403.48001;5.25;99.87901;1;0.09387729766218941;10.143988945893803;0.004551224145064675
414.897;5.5;99.87305;1;0.09850171863967061;9.643467248533433;0.00501892265698832
425.811;5.75;99.86641;1;0.10365375811795245;9.138386332586318;0.005567924442285724
436.20999;6.0;99.85895;1;0.10944204343542277;8.627599529509546;0.006220057584254854
446.10101;6.25;99.85038;1;0.11609158836445944;8.103607640877662;0.007015674178193529
455.53201;6.5;99.84051;1;0.12374981572148376;7.5698146788522624;0.007993985301157858
464.54901;6.75;99.82889;1;0.13276588480846596;7.020188889623329;0.009231585542899365
473.14999;7.0;99.81493;1;0.14359758226580827;6.4509928115726485;0.010842447862641158
481.38901;7.25;99.79883;1;0.1560897261815202;5.8924359153283135;0.012870472557875323
489.30801;7.5;99.7802;1;0.17054492128398038;5.347984658692099;0.015448163972251155
496.95099;7.75;99.7587;1;0.18722697682357817;4.823847728604593;0.018736371625404785
504.354;8.0;99.72951;1;0.20987577687944356;4.245110986072513;0.023750084120686604
511.552;8.25;99.70556;1;0.22845881084100444;3.8555670619803912;0.028347860426696875
518.60303;8.5;99.67761;1;0.2501454830424959;3.4737170222670626;0.034280312635459026
525.52899;8.75;99.64744;1;0.2735546744671421;3.1289889117539302;0.041388519194429846
532.41498;9.0;99.61624;1;0.29776305273856957;2.828979155645351;0.0495332466404631
539.242;9.25;99.58359;1;0.3230964998719747;2.562613904488172;0.05895077782524194
546.04999;9.5;99.55066;1;0.3486472016821775;2.332612591293048;0.06940974890106438
552.91699;9.75;99.51796;1;0.37401944429357203;2.1347634789657968;0.08078763577036774
559.81097;10.0;99.48571;1;0.3990425276029852;1.9637449158079743;0.09301628786107174
566.76001;10.25;99.45584;1;0.42221894615964023;1.8229537088979522;0.10527120852912664
573.81702;10.5;99.43035;1;0.44199688084356625;1.7141170645692858;0.11646303564108251
580.95203;10.75;99.40402;1;0.46242657955788535;1.6111103921993581;0.12876016970482573
588.20599;11.0;99.38426;1;0.4777585524631275;1.5393490208550977;0.13849731900564233
595.56201;11.25;99.36657;1;0.49148439257920495;1.4787225774953834;0.14759594780946067
602.99298;11.5;99.35179;1;0.5029523358757357;1.4304732349444378;0.15548154650191676
610.53101;11.75;99.3396;1;0.5124106734119045;1.3922113019607876;0.162184148241928
618.13702;12.0;99.32953;1;0.5202240826809194;1.3615888008238421;0.1678593180553674
625.77301;12.25;99.32101;1;0.5268348321319667;1.3363432070528767;0.1727602460744413
633.47803;12.5;99.31366;1;0.5325377673978339;1.3150338147746112;0.17706232079702816
641.17999;12.75;99.30743;1;0.5373716839565216;1.2973006850079392;0.18076328823934268
648.89398;13.0;99.30208;1;0.541522800102418;1.2823065660799635;0.1839817783020261
656.60797;13.25;99.29736;1;0.5451850932255363;1.2692533982565453;0.18685246445400777
664.32202;13.5;99.29303;1;0.5485447816202539;1.2574202014215146;0.18951188404999408
672.11798;13.75;99.28895;1;0.5517104926249806;1.2463916440611702;0.19204063322642206
679.88397;14.0;99.28495;1;0.5548141308649112;1.2356916169612315;0.19454150052217728
687.646;14.25;99.28115;1;0.5577625871928402;1.2256277666958133;0.19693736372438558
695.34998;14.5;99.27775;1;0.5604006796967773;1.21670545946241;0.19909768981995407
703.00702;14.75;99.27413;1;0.5632094723039095;1.2072897986399782;0.20141520535314206
710.60199;15.0;99.27054;1;0.5659949876242458;1.1980363766455104;0.20373135286637334
718.14001;15.25;99.26704;1;0.5687106710841836;1.1890944099578311;0.2060066458158189
725.58698;15.5;99.26361;1;0.5713720408749166;1.180406250901075;0.20825302248791128
732.97998;15.75;99.26033;1;0.5739170242316594;1.1721664305004358;0.21041661619964291
740.302;16.0;99.25705;1;0.5764620075883912;1.1639925085991587;0.21259541112607527
747.57898;16.25;99.2535;1;0.5792164865263294;1.1552189129208532;0.21497079355220522
754.82001;16.5;99.24999;1;0.5819399290818695;1.146617857515757;0.21733713820619593
762.01898;16.75;99.2466;1;0.5845702624902044;1.1383793667102224;0.21963942338835302
769.203;17.0;99.24339;1;0.5870609321777424;1.130639475370317;0.22183481296143936
776.36798;17.25;99.24019;1;0.589543842769689;1.1229820809082545;0.22403831582633915
783.52197;17.5;99.2371;1;0.5919414033100325;1.115642484516029;0.22618032630427004
790.67499;17.75;99.234;1;0.5943467229459785;1.1083322983434487;0.22834342442230932
797.85699;18.0;99.23075;1;0.5968684290159145;1.1007248046151568;0.23062650433699244
805.047;18.25;99.22751;1;0.5993823759902592;1.0931974162420612;0.23291826067347549
812.27698;18.5;99.22438;1;0.6018109729130009;1.085978616860562;0.23514719067563306
819.521;18.75;99.22125;1;0.6042395698357427;1.0788112329369626;0.23739093303870396
826.80103;19.0;99.21805;1;0.6067224804276783;1.0715360009664745;0.23970026258562344
834.12701;19.25;99.21496;1;0.6091200409680219;1.0645605103085545;0.24194508449825325
841.487;19.5;99.21193;1;0.6114710469347738;1.0577672206428077;0.24416059763845688
848.85303;19.75;99.20896;1;0.6137754983279122;1.0511528082831267;0.24634604503755997
856.24298;20.0;99.2062;1;0.6159170087134688;1.0450449632677097;0.24838929001555038
863.66803;20.25;99.20323;1;0.6182214601066072;1.0385137206335928;0.25060133886211233
871.10101;20.5;99.2007;1;0.6201845112933664;1.0329834719291855;0.25249664500321606
878.534;20.75;99.19836;1;0.6220001396637265;1.0278955930233509;0.2542586463623864
885.98798;21.0;99.19569;1;0.6240718181888736;1.0221216149222268;0.25627978999687534
893.46198;21.25;99.19296;1;0.6261900512876234;1.0162521387054468;0.2583581575328368
900.93701;21.5;99.1904;1;0.6281763797611785;1.0107792774122186;0.2603180069710689
908.41302;21.75;99.18727;1;0.6306049766839202;1.004128289050386;0.2627286531661153
915.90503;22.0;99.18407;1;0.6330878872758559;0.997373979667116;0.26520971900179996
923.39099;22.25;99.18075;1;0.6356639070149968;0.9904142705520405;0.26780158534032183
930.88397;22.5;99.17694;1;0.6386201224385281;0.9824866049442592;0.27079843841467854
938.39301;22.75;99.17309;1;0.6416073742444576;0.9745390243175746;0.27385132054870276
945.88599;23.0;99.1689;1;0.6448584353007873;0.9659607084289995;0.27720210973781395
953.396;23.25;99.16453;1;0.648249160077903;0.957091487647232;0.280728557855447
960.88;23.5;99.15978;1;0.651934730487817;0.9475392427768579;0.2845987365799097
968.32599;23.75;99.15476;1;0.6558297964789265;0.9375419260311607;0.2887313297703193
975.74298;24.0;99.14982;1;0.6596627897052287;0.9278001183397265;0.29284109657611423
983.11298;24.25;99.14473;1;0.6636121693655432;0.9178602065657543;0.29712081455119943
990.474;24.5;99.1396;1;0.6675925854082447;0.9079403752873935;0.3014810833324204
997.83099;24.75;99.13462;1;0.6714566150169561;0.8984028716322982;0.30575944801423144
1005.203;25.0;99.12968;1;0.6752896082432693;0.8890298722677878;0.3100483470824481
1012.59399;25.25;99.12508;1;0.6788587922191823;0.8803790642883218;0.31408273062528147
1020.00201;25.5;99.12093;1;0.682078816893103;0.8726370677291044;0.3177564715975554
1027.448;25.75;99.11696;1;0.6851591778462267;0.8652853697022805;0.32130138806052766
1034.89404;26.0;99.11361;1;0.6877584748721745;0.8591225664234206;0.32431612411690797
1042.36096;26.25;99.11082;1;0.6899232625445159;0.8540180257146918;0.3268434116291983
1049.84204;26.5;99.10882;1;0.6914750816644867;0.8503743633794533;0.3286643813166875
1057.34302;26.75;99.1069;1;0.6929648280196502;0.8468885099686905;0.3304198550199564
1064.86401;27.0;99.10539;1;0.6941364514552195;0.8441552657720075;0.33180553800050294
1072.39905;27.25;99.10437;1;0.6949278792063984;0.8423130440820443;0.3327441009341882
1079.93799;27.5;99.10366;1;0.6954787749939839;0.8410326439010282;0.3333986260076958
1087.48401;27.75;99.10336;1;0.6957115478619862;0.8404921045469292;0.333675485307845
1095.01904;28.0;99.1029;1;0.6960684662595698;0.8396638241672472;0.3341003487908194
1102.57898;28.25;99.10275;1;0.6961848526935709;0.8393938756130247;0.3342389818298511
1110.13196;28.5;99.10264;1;0.6962702027451738;0.8391959579497921;0.334340674394183
1117.67603;28.75;99.10241;1;0.6964486619439602;0.8387822519945088;0.33455338181108124
1125.18994;29.0;99.10238;1;0.696471939230767;0.838728302498852;0.3345811339903555
1132.70105;29.25;99.10208;1;0.6967047120987582;0.8381889616339003;0.3348587539868527
1140.20703;29.5;99.10158;1;0.6970926668787509;0.8372906820117961;0.33532185104518647
1147.70898;29.75;99.10106;1;0.6974961398499371;0.8363572941106178;0.33580399908640673
1155.18103;30.0;99.10027;1;0.6981091084023298;0.8349408637734013;0.3365375232803421
1162.64905;30.25;99.09944;1;0.6987531133371095;0.8334547892550539;0.33730952869810776
1170.12097;30.5;99.09853;1;0.6994591910366964;0.83182791149727;0.33815752658264187
1177.59399;30.75;99.09735;1;0.7003747643174677;0.8297221064037607;0.33925959892650465
1185.05505;31.0;99.09611;1;0.7013368921718527;0.827513793960676;0.34042072375528126
1192.52295;31.25;99.0949;1;0.7022757427394308;0.8253633959983234;0.3415567446544056
1199.99695;31.5;99.09336;1;0.703470643461796;0.822632898071478;0.343006872521725
1207.48206;31.75;99.09185;1;0.7046422668973764;0.8199624766822732;0.3444334262468894
1214.97803;32.0;99.08989;1;0.706163049634938;0.8165063245845737;0.3462920461683552
1222.48401;32.25;99.08736;1;0.7081261008216863;0.812061766425124;0.3487028263296394
1229.98706;32.5;99.0854;1;0.709646883559248;0.8086313610161584;0.35057953787049967
1237.51697;32.75;99.08258;1;0.7118349485184072;0.8037151781817023;0.35329368999256044
1245.047;33.0;99.07945;1;0.7142635454411489;0.7982850407030478;0.35632566612525485
1252.57202;33.25;99.07612;1;0.7168473242758812;0.7925380723231525;0.359574045411033
1260.11206;33.5;99.07224;1;0.7198578533686174;0.7858804702998027;0.3633886990651491
1267.62598;33.75;99.06749;1;0.7235434237785204;0.7777855013056287;0.36810278396535084
1275.16101;34.0;99.06153;1;0.7281678447560127;0.7677127769783024;0.3740873039658599
1282.646;34.25;99.05312;1;0.734693244155457;0.7536541562913286;0.3826660528637693
1290.13599;34.5;99.0409;1;0.7441748589784437;0.7335351915358601;0.3954183930672239
1297.59998;34.75;99.02363;1;0.7575748170793246;0.7056853553550804;0.4140432685201313
1305.01599;35.0;98.99319;1;0.7811935040851662;0.6580819784611194;0.44870225971695216
1312.41394;35.25;98.95841;1;0.8081796385813277;0.6056216358890002;0.4914466322760021
1319.77405;35.5;98.91372;1;0.8428550368169115;0.5403692092486369;0.5520446788366842
1327.12305;35.75;98.8579;1;0.8861663084550873;0.46018973565508203;0.638803790942892
1333.45179;36.0;98.79554;2;0.934552028615544;0.36677061432506325;0.7561081489037128
1336.65409;36.25;98.71119;2;1.0;0.0;
