##Temp./Â°C,Time/min,Mass/%,Segment,Alpha,F_alpha,G_alpha
238.77499,2.25,99.91396,1.0,0.02,1.975387867279748,0.0123060663601261
283.46701,3.0,99.89247,1.0,0.03,1.9691925442424572,0.0154037278787713
354.879,4.25,99.8566,1.0,0.04,1.958807981994844,0.0205960090025781
415.996,5.5,99.82352,1.0,0.05,1.949182102904225,0.0254089485478875
436.92001,6.0,99.80572,1.0,0.06,1.943982794752052,0.028008602623974
464.698,6.75,99.76797,1.0,0.07,1.9329098908496496,0.033545054575175
481.26199,7.25,99.73119,1.0,0.08,1.922060157335477,0.0389699213322615
496.62201,7.75,99.67742,1.0,0.09,1.906087406358312,0.0469562968208441
503.944,8.0,99.6495,1.0,0.1,1.8977405507167773,0.0511297246416112
511.108,8.25,99.61908,1.0,0.11,1.8886043128753125,0.0556978435623438
518.14398,8.5,99.58653,1.0,0.12,1.8787791554026108,0.0606104222986946
525.08002,8.75,99.55171,1.0,0.13,1.8682116008209164,0.0658941995895417
531.974,9.0,99.51667,1.0,0.14,1.8575165886211784,0.0712417056894108
538.84003,9.25,99.48006,1.0,0.15,1.8462761980518552,0.0768619009740724
545.71503,9.5,99.44282,1.0,0.16,1.8347717296707131,0.0826141351646433
552.63,9.75,99.40683,1.0,0.17,1.823584457242172,0.0882077713789142
559.60797,10.0,99.37175,1.0,0.18,1.812613603928357,0.0936931980358215
566.672,10.25,99.33946,1.0,0.19,1.8024562706279024,0.0987718646860487
573.82599,10.5,99.30969,1.0,0.2,1.7930406648599002,0.1034796675700499
588.43103,11.0,99.2594,1.0,0.21,1.7770217096817786,0.1114891451591106
595.87701,11.25,99.24266,1.0,0.22,1.7716573599620251,0.1141713200189873
611.02002,11.75,99.20641,1.0,0.23,1.759984973682558,0.1200075131587209
634.09698,12.5,99.1615,1.0,0.24,1.745415840060656,0.1272920799696719
649.534,13.0,99.13449,1.0,0.25,1.7365947378839566,0.1317026310580217
680.45697,14.0,99.07864,1.0,0.26,1.7182112519078756,0.1408943740460622
688.13202,14.25,99.06375,1.0,0.27,1.7132767813321252,0.1433616093339373
710.81897,15.0,99.01776,1.0,0.28,1.6979453832869835,0.1510273083565082
725.60699,15.5,98.98541,1.0,0.29,1.6870775987903333,0.1564612006048333
740.151,16.0,98.95161,1.0,0.3,1.6756474021446028,0.1621762989276985
754.51202,16.5,98.91721,1.0,0.31,1.6639336830644416,0.1680331584677792
768.78198,17.0,98.88292,1.0,0.32,1.6521747717816035,0.1739126141091982
783.03998,17.5,98.84817,1.0,0.33,1.6401721097557869,0.1799139451221065
797.33301,18.0,98.81377,1.0,0.34,1.6282031921548386,0.1858984039225807
811.75702,18.5,98.77986,1.0,0.35,1.6163180186350243,0.1918409906824878
826.29602,19.0,98.74682,1.0,0.36,1.6046531040788112,0.1976734479605943
840.96802,19.5,98.71522,1.0,0.37,1.593416696115152,0.203291651942424
863.20502,20.25,98.66972,1.0,0.38,1.57709707365493,0.2114514631725349
878.10999,20.75,98.64046,1.0,0.39,1.566512482778221,0.2167437586108894
893.00702,21.25,98.61016,1.0,0.4,1.555475770562391,0.2222621147188045
915.32703,22.0,98.56367,1.0,0.41,1.5383879481796403,0.2308060259101797
930.23297,22.5,98.52945,1.0,0.42,1.5256877978217598,0.2371561010891201
945.117,23.0,98.49218,1.0,0.43,1.511734315809394,0.244132842095303
959.97998,23.5,98.45129,1.0,0.44,1.4962758580241835,0.2518620709879082
967.38397,23.75,98.42921,1.0,0.45,1.4878617403966758,0.2560691298016621
982.17798,24.25,98.38196,1.0,0.46,1.46969415517046,0.2651529224147699
989.59302,24.5,98.35566,1.0,0.47,1.459483859060426,0.270258070469787
1004.44299,25.0,98.30205,1.0,0.48,1.4384467440818047,0.2807766279590976
1011.90997,25.25,98.2725,1.0,0.49,1.4267184140468734,0.2866407929765633
1019.39697,25.5,98.24261,1.0,0.5,1.414756229873382,0.292621885063309
1026.88098,25.75,98.21154,1.0,0.51,1.4022136346516534,0.2988931826741733
1034.39294,26.0,98.17869,1.0,0.52,1.3888292868605003,0.3055853565697498
1041.93396,26.25,98.14519,1.0,0.53,1.3750459386292946,0.3124770306853527
1049.46204,26.5,98.11041,1.0,0.54,1.3605882151178257,0.3197058924410872
1057.00903,26.75,98.07472,1.0,0.55,1.3455907316638096,0.3272046341680952
1064.56897,27.0,98.03816,1.0,0.56,1.330052329240143,0.3349738353799285
1072.12097,27.25,98.00134,1.0,0.57,1.3142177573290943,0.3428911213354528
1079.68604,27.5,97.9639,1.0,0.58,1.2979184791945535,0.3510407604027231
1087.23901,27.75,97.92564,1.0,0.59,1.281047992010235,0.3594760039948826
1094.81494,28.0,97.88699,1.0,0.6,1.263776893960645,0.3681115530196774
1102.37598,28.25,97.84694,1.0,0.61,1.245627580270697,0.3771862098646514
1109.92395,28.5,97.8047,1.0,0.62,1.2261947971165903,0.3869026014417048
1117.46802,28.75,97.76075,1.0,0.64,1.20564286514051,0.397178567429745
1125.00098,29.0,97.71381,1.0,0.65,1.1832986075261758,0.4083506962369121
1132.51404,29.25,97.66333,1.0,0.66,1.1587885318899174,0.4206057340550413
1140.01794,29.5,97.60992,1.0,0.68,1.1322783217441197,0.4338608391279402
1147.51404,29.75,97.55373,1.0,0.7,1.103701128019946,0.448149435990027
1154.99805,30.0,97.48731,1.0,0.71,1.068936309462707,0.4655318452686466
1162.48999,30.25,97.42722,1.0,0.73,1.036480497913393,0.4817597510433035
1169.99194,30.5,97.36797,1.0,0.75,1.0034510654405189,0.4982744672797407
1177.505,30.75,97.31101,1.0,0.76,0.9706391687776122,0.5146804156111939
1185.00598,31.0,97.26078,1.0,0.78,0.940754993326931,0.5296225033365345
1192.53796,31.25,97.21903,1.0,0.79,0.9151736372475654,0.5424131813762173
1200.12097,31.5,97.18826,1.0,0.8,0.8958525698328181,0.5520737150835909
1245.44702,33.0,97.16821,1.0,0.81,0.8830353407103053,0.5584823296448473
1304.91699,35.0,97.11805,1.0,0.82,0.8501238597347305,0.5749380701326348
1312.30603,35.25,97.08429,1.0,0.83,0.8272360340157845,0.5863819829921078
1319.69299,35.5,97.03929,1.0,0.84,0.7957050063451355,0.6021474968274323
1327.05505,35.75,96.98337,1.0,0.86,0.7546889937031297,0.6226555031484351
1333.44702,36.0,96.92672,2.0,0.87,0.7107280475339627,0.6446359762330187
1336.58496,36.25,96.83984,2.0,0.9,0.6374451775922089,0.6812774112038955
1336.56006,36.5,96.75304,2.0,0.92,0.5546434219747673,0.7226782890126163
1333.98303,36.75,96.68181,2.0,0.94,0.4760547807204499,0.7619726096397751
1329.15796,37.0,96.62479,2.0,0.96,0.4022266510479547,0.7988866744760226
1322.29602,37.25,96.57891,2.0,0.97,0.3310778813811127,0.8344610593094436
1313.61401,37.5,96.54538,2.0,0.98,0.2673630369118282,0.8663184815440859
1303.28796,37.75,96.52435,2.0,0.99,0.2181012273619955,0.8909493863190022
451.55301,61.5,96.48252,2.0,1.0,0.0,1.0
