##Temp./Â°C,Time/min,Mass/%,Segment,Alpha,F_alpha,G_alpha
226.481,6.5,99.92521,1.0,0.03,19.70718010429386,0.000643711158319
308.263,14.0,99.88212,1.0,0.04,12.503393281303072,0.0015991316735795
345.69601,18.0,99.86695,1.0,0.05,11.077790304397078,0.0020372002872367
408.90601,24.5,99.82544,1.0,0.06,8.44351512373971,0.0035066582075619
434.12701,27.0,99.79559,1.0,0.07,7.21050829215807,0.0048084847985771
449.07001,28.5,99.76903,1.0,0.08,6.381348227042496,0.0061392471835087
458.953,29.5,99.74522,1.0,0.09,5.784990972603892,0.0074702414223144
468.759,30.5,99.71507,1.0,0.1,5.172849471800042,0.0093428704555037
478.55301,31.5,99.67757,1.0,0.11,4.57122476196388,0.0119639573871104
483.439,32.0,99.65583,1.0,0.12,4.2824766830344805,0.0136316992103798
493.237,33.0,99.60673,1.0,0.13,3.74780685025554,0.0177985903427143
498.13901,33.5,99.579,1.0,0.14,3.5009501187647927,0.0203970876732087
503.06,34.0,99.54994,1.0,0.15,3.274896680442656,0.0233101357473067
508.008,34.5,99.51893,1.0,0.16,3.063795289666769,0.0266330264498101
512.95801,35.0,99.48671,1.0,0.17,2.8714761635722628,0.0303200265781158
517.92798,35.5,99.45353,1.0,0.19,2.697128845133314,0.0343666042043328
522.91699,36.0,99.41984,1.0,0.2,2.540506067291754,0.0387346410531703
527.93201,36.5,99.38693,1.0,0.21,2.4041300340907505,0.0432537833564662
532.96002,37.0,99.3546,1.0,0.22,2.283700030988552,0.0479360111939093
538.013,37.5,99.32347,1.0,0.23,2.178617356214804,0.0526717915337703
543.05701,38.0,99.29445,1.0,0.24,2.089008574870662,0.0572874595177522
548.13202,38.5,99.26736,1.0,0.25,2.011765669360113,0.0617710840907159
553.20398,39.0,99.2423,1.0,0.26,1.94522898244688,0.0660691235218333
563.35303,40.0,99.198,1.0,0.27,1.8377805486284144,0.0740206181400374
568.422,40.5,99.17831,1.0,0.28,1.7937421655368735,0.0776998131119912
578.49799,41.5,99.14344,1.0,0.29,1.7207200896609662,0.0844344250243264
583.50702,42.0,99.12755,1.0,0.3,1.6893804802567476,0.0875961593430465
593.48999,43.0,99.09755,1.0,0.31,1.633220677045817,0.0937238822025166
603.42603,44.0,99.06899,1.0,0.32,1.5831194079548012,0.0997499444515081
613.35901,45.0,99.04141,1.0,0.33,1.5375708071229608,0.1057474148494408
628.22699,46.5,98.99986,1.0,0.34,1.4736936828843938,0.115113316092437
638.15302,47.5,98.97191,1.0,0.35,1.43362935151591,0.1216371513473931
648.08899,48.5,98.94311,1.0,0.36,1.394563294193347,0.1285474744209362
658.01703,49.5,98.91403,1.0,0.37,1.3572198127020048,0.1357186799756022
668.06598,50.5,98.88429,1.0,0.38,1.321042206308083,0.1432539554257163
678.16101,51.5,98.85323,1.0,0.39,1.2852620839401063,0.1513410062246864
688.19299,52.5,98.82138,1.0,0.4,1.2505302811762964,0.1598643343540966
693.20099,53.0,98.80543,1.0,0.41,1.2338330947537623,0.1642204276039558
703.15802,54.0,98.7727,1.0,0.42,1.2009288682473729,0.1733426531064497
713.08197,55.0,98.73943,1.0,0.43,1.1692329660391718,0.1828680801492481
723.00299,56.0,98.70584,1.0,0.44,1.1388854546578435,0.1927435776338734
732.93298,57.0,98.67192,1.0,0.45,1.1097976025540637,0.2029796241885187
737.91199,57.5,98.65525,1.0,0.46,1.096040156162852,0.2081071860426389
747.84601,58.5,98.62211,1.0,0.47,1.0696790019522655,0.218490756060717
757.79498,59.5,98.58933,1.0,0.48,1.0448226729142922,0.2290102031516821
767.74402,60.5,98.55721,1.0,0.49,1.0215623895369377,0.2395577459561074
777.70801,61.5,98.52608,1.0,0.5,0.9999864307425056,0.2500067847668433
782.68597,62.0,98.51076,1.0,0.51,0.989699444011714,0.255230961236309
792.651,63.0,98.48035,1.0,0.52,0.9698943835751664,0.2657609207662953
802.66199,64.0,98.45114,1.0,0.53,0.9516031145487622,0.2760757744263509
812.65997,65.0,98.42288,1.0,0.54,0.9345515877041736,0.2862420604346852
827.67401,66.5,98.38265,1.0,0.55,0.9113055306519916,0.3010315374735731
842.76599,68.0,98.34375,1.0,0.56,0.8899018867924531,0.3156863134647531
847.79602,68.5,98.33077,1.0,0.57,0.8829819737244128,0.3206537577375743
862.83698,70.0,98.2927,1.0,0.58,0.8632929186434706,0.3354467987227724
877.79102,71.5,98.25473,1.0,0.59,0.8445111644616571,0.350533248823766
882.78699,72.0,98.24187,1.0,0.6,0.838333911599259,0.3557180805412115
892.78601,73.0,98.215,1.0,0.61,0.8257142857142876,0.3666742495899218
907.85999,74.5,98.17301,1.0,0.62,0.8067367637480252,0.3841283063873466
917.93201,75.5,98.14372,1.0,0.63,0.7940073695778664,0.3965435972446096
927.99402,76.5,98.11282,1.0,0.64,0.7810065812482115,0.4098553624020712
933.034,77.0,98.09648,1.0,0.65,0.7743023451290243,0.4169834895598271
943.065,78.0,98.06313,1.0,0.66,0.7609700186383191,0.4317227312166811
953.08197,79.0,98.02837,1.0,0.67,0.7475540542596719,0.447357586113997
963.04999,80.0,97.99226,1.0,0.68,0.7341089981770557,0.4638941693387219
968.03998,80.5,97.97407,1.0,0.69,0.7275177325968808,0.4723379517837948
978.02301,81.5,97.93717,1.0,0.7,0.7145038612003881,0.4897008394880219
983.026,82.0,97.91891,1.0,0.71,0.7082346270464027,0.4984087930980597
993.05701,83.0,97.88287,1.0,0.72,0.6961783168723689,0.5158210051103335
1003.13202,84.0,97.84778,1.0,0.73,0.6848277592439437,0.5330614750161641
1008.17499,84.5,97.8308,1.0,0.74,0.6794670846394975,0.541505862131814
1018.229,85.5,97.7977,1.0,0.75,0.6692548699087338,0.5581577104968574
1028.27295,86.5,97.76624,1.0,0.76,0.6598291669651162,0.574218248923265
1038.297,87.5,97.73627,1.0,0.77,0.6510935491423462,0.5897300033381315
1053.32996,89.0,97.69406,1.0,0.78,0.6391753471469319,0.611927508294001
1058.34204,89.5,97.68076,1.0,0.79,0.6355099084182769,0.6190067094163421
1068.375,90.5,97.65504,1.0,0.8,0.6285395060043669,0.6328122081298979
1083.43396,92.0,97.61771,1.0,0.81,0.6186904197222008,0.6531203660268247
1278.69397,111.5,97.5956,1.0,0.82,0.6130011645316932,0.6652998255310788
1103.45105,94.0,97.56783,1.0,0.83,0.606002047554242,0.6807565451300318
1213.62903,105.0,97.52273,1.0,0.84,0.5949694623517009,0.7062373105432099
1128.48499,96.5,97.50746,1.0,0.85,0.5913245123448359,0.7149706993184708
1153.54602,99.0,97.46482,1.0,0.86,0.5813788370056573,0.7396420115878258
1318.56799,115.5,97.39569,1.0,0.88,0.5659464503073757,0.7805295112200848
1323.55603,116.0,97.32509,1.0,0.91,0.5510091928326568,0.8234217221134016
1328.53796,116.5,97.24276,1.0,0.94,0.5345562954258616,0.8748893130041359
1329.93553,117.0,97.12121,2.0,0.98,0.511985938536678,0.9537267015971804
1009.56257,125.0,97.0565,2.0,1.0,0.5007304229658571,0.9970846979016168
