##Temp./Â°C;Time/min;Mass/%;Segment;Alpha;F_alpha;G_alpha
120.524;0.0;100.0;1;0.0;inf;0.0
129.022;0.5;99.98645;1;0.0045966483479188075;108.77490774911715;2.11291760344247e-05
137.681;1.0;99.97589;1;0.008178980934932216;61.13231024472902;6.689572913398466e-05
146.403;1.5;99.96781;1;0.010920008141664947;45.787511649580715;0.00011924657781402874
155.10699;2.0;99.96158;1;0.013033448673587796;38.362831858404974;0.00016987078432704748
163.771;2.5;99.95623;1;0.014848361489922982;33.67374914325267;0.00022047383893542783
172.30701;3.0;99.9517;1;0.01638510075310318;30.515527950312105;0.0002684715266893424
180.67599;3.5;99.9474;1;0.01784381572698222;28.020912547529484;0.000318401759698498
188.91;4.0;99.94332;1;0.01922789877196555;26.00388143966123;0.00036971209118495435
196.935;4.5;99.93932;1;0.02058484293371495;24.28971654581213;0.0004237357586057144
204.716;5.0;99.93562;1;0.021840016283329895;22.893755824790357;0.00047698631125611495
212.235;5.5;99.93204;1;0.023054481308093944;21.687757504414577;0.000531509108385253
219.492;6.0;99.92868;1;0.024194314403962285;20.6660123387549;0.0005853648494777769
226.481;6.5;99.92521;1;0.025371463464276073;19.70718010429386;0.0006437111583190956
233.21201;7.0;99.92208;1;0.026433272270848077;18.915554414782946;0.0006987178829447858
239.69099;7.5;99.91891;1;0.027508650519032226;18.1761006289301;0.0007567258533782519
245.929;8.0;99.91563;1;0.028621344731666637;17.469479672868072;0.0008191813742489016
251.942;8.5;99.91261;1;0.029645837573783557;16.865774116031744;0.0008788756854511569
257.746;9.0;99.90943;1;0.03072460818237315;16.273600529976893;0.000944001547960351
263.35999;9.5;99.90616;1;0.03183391003460211;15.706521739130416;0.001013397828091141
268.79001;10.0;99.90329;1;0.032807517470656626;15.24040947161592;0.0010763332025874397
274.069;10.5;99.90034;1;0.03380826378994506;14.789283564117994;0.0011429987004905103
279.207;11.0;99.89744;1;0.03479204830721109;14.371099843994202;0.00121048662541131
284.24301;11.5;99.89465;1;0.03573851686003167;13.990507831039213;0.0012772415873547678
289.16501;12.0;99.89204;1;0.0366239229255735;13.65227862171104;0.0013413117304583485
294.017;12.5;99.88944;1;0.03750593663070989;13.331222865411648;0.001406695282546826
298.806;13.0;99.88687;1;0.03837777325462994;13.02837443648921;0.0014728534799837891
303.55099;13.5;99.8845;1;0.03918176267046517;12.761038961039267;0.001535210525964658
308.263;14.0;99.88212;1;0.03998914444670585;12.503393281303072;0.0015991316735795053
312.94199;14.5;99.88023;1;0.040630300563132694;12.306086666109781;0.001650821323850501
317.61401;15.0;99.87827;1;0.041295203202388026;12.107943810071527;0.0017052938075265182
322.289;15.5;99.87631;1;0.04196010584164335;11.91608052389073;0.0017606504822419123
326.94501;16.0;99.87442;1;0.042601261958070194;11.736741519350279;0.0018148675204201186
331.62799;16.5;99.87261;1;0.04321527919126311;11.56998194520714;0.0018675603555788184
336.284;17.0;99.8708;1;0.043829296424451214;11.407894736842344;0.001921007225062412
340.98999;17.5;99.86895;1;0.044456883099261095;11.2468523464325;0.0019764144549013667
345.69601;18.0;99.86695;1;0.04513535518013338;11.077790304397078;0.0020372002872367932
350.423;18.5;99.8648;1;0.045864712667072906;10.901627218935111;0.0021035718680331578
355.15201;19.0;99.86273;1;0.046566931270778496;10.737233190063312;0.002168479087977408
359.89301;19.5;99.86042;1;0.04735056652418587;10.559535750107836;0.0022420761501613516
364.66699;20.0;99.8579;1;0.04820544134608833;10.372273047149953;0.0023237645753711625
369.46301;20.5;99.85521;1;0.049117986294864094;10.179570412321267;0.002412576577662457
374.27399;21.0;99.85223;1;0.05012890969536405;9.974284360831415;0.002512907587245964
379.12;21.5;99.84929;1;0.05112626365425186;9.77970937562182;0.0026138948352440747
384.005;22.0;99.84589;1;0.05227966619173716;9.56394782947228;0.0027331634971194656
388.923;22.5;99.84242;1;0.05345681525205095;9.353344333037438;0.0028576310968919066
393.88199;23.0;99.83804;1;0.05494266910916392;9.100395159298962;0.0030186968888390752
398.867;23.5;99.83431;1;0.0562080195399952;8.89552779286631;0.0031593414606084823
403.888;24.0;99.83004;1;0.05765655743266272;8.672040480112805;0.003324278614985935
408.90601;24.5;99.82544;1;0.0592170432186714;8.44351512373971;0.003506658207561996
413.95499;25.0;99.8205;1;0.0608928692584315;8.211142061281137;0.003707941526524432
419.01401;25.5;99.81499;1;0.06276205984123936;7.9665964001943514;0.003939076155515311
424.064;26.0;99.80902;1;0.06478729900264471;7.717562048382188;0.004197394112058089
429.10199;26.5;99.80276;1;0.06691091661577908;7.472622186169377;0.004477070762363741
434.12701;27.0;99.79559;1;0.06934323902571263;7.21050829215807;0.004808484798577115
439.13699;27.5;99.78779;1;0.0719892801411218;6.945478535413073;0.0051824564552369135
444.103;28.0;99.77892;1;0.074998303819798;6.666817441650065;0.005624745575846727
449.07001;28.5;99.76903;1;0.07835334825971883;6.381348227042496;0.006139247183508784
454.01999;29.0;99.75786;1;0.08214261483140178;6.086974477574802;0.006747409171340028
458.953;29.5;99.74522;1;0.08643055838252141;5.784990972603892;0.007470241422314442
463.862;30.0;99.73107;1;0.09123074835470431;5.480608336741957;0.008323049445359382
468.759;30.5;99.71507;1;0.0966585250016971;5.172849471800042;0.009342870455503702
473.66299;31.0;99.69711;1;0.10275120428794521;4.866123014955846;0.01055780998262305
478.55301;31.5;99.67757;1;0.10937987651808027;4.5712247619638795;0.011963957387110489
483.439;32.0;99.65583;1;0.11675486803718207;4.2824766830344805;0.013631699210379801
488.332;32.5;99.63239;1;0.12470656082502171;4.009412148744604;0.01555172631280484
493.237;33.0;99.60673;1;0.13341135762263417;3.74780685025554;0.01779859034271439
498.13901;33.5;99.579;1;0.14281837302395223;3.5009501187647927;0.020397087673208764
503.06;34.0;99.54994;1;0.15267657235904517;3.274896680442656;0.023310135747306754
508.008;34.5;99.51893;1;0.16319628197299763;3.063795289666769;0.026633026449810148
512.95801;35.0;99.48671;1;0.1741264671958741;2.8714761635722628;0.03032002657811582
517.92798;35.5;99.45353;1;0.18538231901757216;2.697128845133314;0.03436660420433289
522.91699;36.0;99.41984;1;0.19681118121989494;2.540506067291754;0.03873464105317032
527.93201;36.5;99.38693;1;0.20797543931067006;2.4041300340907505;0.0432537833564662
532.96002;37.0;99.3546;1;0.21894294049799679;2.2837000309885522;0.04793601119390936
538.013;37.5;99.32347;1;0.22950335843680014;2.178617356214804;0.052671791533770364
543.05701;38.0;99.29445;1;0.23934798833028093;2.089008574870662;0.05728745951775229
548.13202;38.5;99.26736;1;0.24853789266571794;2.011765669360113;0.06177108409071593
553.20398;39.0;99.2423;1;0.2570391478390663;1.9452289824468798;0.06606912352183338
558.28497;39.5;99.21947;1;0.2647839066422412;1.8883322870357353;0.07011051721672712
563.35303;40.0;99.198;1;0.27206730443042487;1.8377805486284142;0.07402061814003749
568.422;40.5;99.17831;1;0.2787468620666272;1.7937421655368735;0.07769981311199128
573.46899;41.0;99.16024;1;0.2848768573173207;1.7551443269505616;0.0811548238349931
578.49799;41.5;99.14344;1;0.29057602279666245;1.7207200896609662;0.08443442502432649
583.50702;42.0;99.12755;1;0.29596648347920496;1.6893804802567476;0.0875961593430465
588.49402;42.5;99.11228;1;0.3011466178166773;1.6603208218807708;0.0906892854224239
593.48999;43.0;99.09755;1;0.3061435646923134;1.633220677045817;0.09372388220251668
598.46997;43.5;99.0831;1;0.31104552547662595;1.6074817319227868;0.09674931891903037
603.42603;44.0;99.06899;1;0.3158321460071919;1.5831194079548012;0.09974994445150819
608.396;44.5;99.05507;1;0.32055431169007365;1.5597980802810805;0.10275506674309688
613.35901;45.0;99.04141;1;0.3251882760024427;1.5375708071229608;0.10574741484944086
618.31403;45.5;99.0276;1;0.3298731257208742;1.5157342657342767;0.10881627907285966
623.26898;46.0;99.01371;1;0.33458511432254445;1.4943880603068116;0.11194719872623014
628.22699;46.5;98.99986;1;0.3392835334825977;1.4736936828843938;0.115113316092437
633.18201;47.0;98.9859;1;0.3440192686070964;1.4534069618380847;0.11834925717296156
638.15302;47.5;98.97191;1;0.3487651808128115;1.43362935151591;0.1216371513473931
643.12201;48.0;98.95756;1;0.3536332179930792;1.4138943248532305;0.12505645286814066
648.08899;48.5;98.94311;1;0.3585351787773917;1.394563294193347;0.12854747442093625
653.05701;49.0;98.92878;1;0.3633964312368534;1.3759078433935186;0.1320569662356811
658.01703;49.5;98.91403;1;0.3684001628333004;1.3572198127020048;0.13571867997560225
663.04303;50.0;98.89919;1;0.3734344256733819;1.3389231565847026;0.1394532702780086
668.06598;50.5;98.88429;1;0.37848904267589617;1.321042206308083;0.14325395542571634
673.12;51.0;98.86885;1;0.38372684714024186;1.303010210847362;0.14724629321619054
678.16101;51.5;98.85323;1;0.38902571409186626;1.2852620839401063;0.15134100622468646
683.19598;52.0;98.83746;1;0.39437546644955784;1.2678273435752676;0.15553200853730634
688.19299;52.5;98.82138;1;0.39983038197977977;1.2505302811762964;0.1598643343540966
693.20099;53.0;98.80543;1;0.4052411968247501;1.2338330947537623;0.16422042760395586
698.18103;53.5;98.78908;1;0.410787706085895;1.217173719155682;0.16874653947131166
703.15802;54.0;98.7727;1;0.41634439242825133;1.2009288682473729;0.17334265310644975
708.117;54.5;98.75626;1;0.4219214329330355;1.185054754209077;0.178017695568266
713.08197;55.0;98.73943;1;0.42763077549358874;1.1692329660391718;0.1828680801492481
718.03497;55.5;98.72249;1;0.43337743401859224;1.1537287379355097;0.18781600031653928
723.00299;56.0;98.70584;1;0.4390257140918667;1.1388854546578435;0.19274357763387348
727.96802;56.5;98.68879;1;0.44480968858131564;1.1240762349280415;0.19785565905580701
732.93298;57.0;98.67192;1;0.4505326005834858;1.1097976025540635;0.20297962418851878
737.91199;57.5;98.65525;1;0.4561876653775712;1.0960401561628519;0.2081071860426389
742.88599;58.0;98.6386;1;0.46183594545084566;1.0826355222564985;0.2132924405104765
747.84601;58.5;98.62211;1;0.46742994775764746;1.0696790019522657;0.21849075606071702
752.82599;59.0;98.60577;1;0.47297306465838684;1.0571426522166412;0.22370351989234658
757.79498;59.5;98.58933;1;0.4785501051631711;1.0448226729142922;0.2290102031516821
762.76703;60.0;98.57336;1;0.48396770472895234;1.033126787416583;0.2342247392206104
767.74402;60.5;98.55721;1;0.48944636678200754;1.0215623895369375;0.23955774595610746
772.71899;61.0;98.54152;1;0.49476898025646043;1.0105726509791055;0.24479634382401774
777.70801;61.5;98.52608;1;0.5000067847208108;0.9999864307425056;0.2500067847668433
782.68597;62.0;98.51076;1;0.5052038808603009;0.9896994440117141;0.25523096123630906
787.66602;62.5;98.49544;1;0.5104009769997956;0.9796219492742081;0.26050915732234586
792.651;63.0;98.48035;1;0.5155200488499893;0.9698943835751664;0.2657609207662953
797.646;63.5;98.46566;1;0.5205034262840084;0.9606084700913748;0.2709238167733921
802.66199;64.0;98.45114;1;0.5254291335911542;0.9516031145487622;0.27607577442635095
807.66302;64.5;98.43695;1;0.5302428930049541;0.9429640766450188;0.2811575255822632
812.65997;65.0;98.42288;1;0.5350159440938982;0.9345515877041737;0.2862420604346852
817.67401;65.5;98.40926;1;0.5396363389646504;0.9265499075901803;0.291207378331171
822.664;66.0;98.39574;1;0.5442228102313577;0.9187413511525585;0.29617846717611634
827.67401;66.5;98.38265;1;0.548663410000679;0.9113055306519916;0.30103153747357314
832.71198;67.0;98.36952;1;0.5531175792116172;0.9039669299838056;0.30593905643291963
837.74103;67.5;98.35646;1;0.5575480018997222;0.8967837716149282;0.3108597744223726
842.76599;68.0;98.34375;1;0.5618596919736751;0.8899018867924531;0.3156863134647531
847.79602;68.5;98.33077;1;0.5662629757785461;0.8829819737244128;0.3206537577375743
852.83301;69.0;98.31802;1;0.5705882352941161;0.8762886597938169;0.32557093425605355
857.84198;69.5;98.30541;1;0.574866001764029;0.8697679084616313;0.3304709199841606
862.83698;70.0;98.2927;1;0.579177691837982;0.8632929186434706;0.3354467987227724
867.828;70.5;98.28002;1;0.5834792048307234;0.856928568936845;0.3404479824698932
872.81097;71.0;98.2673;1;0.5877942872650769;0.8506377330178366;0.3455021241414597
877.79102;71.5;98.25473;1;0.5920584842933728;0.8445111644616571;0.350533248823766
882.78699;72.0;98.24187;1;0.5964210597733882;0.838333911599259;0.3557180805412115
887.77502;72.5;98.22862;1;0.6009159373091774;0.832063137215056;0.3610999637121672
892.78601;73.0;98.215;1;0.6055363321799294;0.8257142857142876;0.36667424958992184
897.79901;73.5;98.2013;1;0.6101838659339155;0.8194251403791645;0.37232435024605853
902.82703;74.0;98.18723;1;0.6149569170228645;0.8130650882351319;0.37817200979426624
907.85999;74.5;98.17301;1;0.6197808535178758;0.8067367637480252;0.38412830638734663
912.89398;75.0;98.15878;1;0.6246081823732975;0.8005018411705255;0.3901353814876745
917.93201;75.5;98.14372;1;0.6297170771422748;0.7940073695778664;0.39654359724460964
922.95697;76.0;98.12848;1;0.6348870343985357;0.787541677353166;0.40308154644736743
927.99402;76.5;98.11282;1;0.640199470791777;0.7810065812482115;0.40985536240207127
933.034;77.0;98.09648;1;0.6457425876925164;0.7743023451290243;0.41698348955982717
938.05701;77.5;98.07991;1;0.6513637288825569;0.7676202677999464;0.4242747073037891
943.065;78.0;98.06313;1;0.6570561096410877;0.7609700186383191;0.4317227312166811
948.08002;78.5;98.04596;1;0.6628807924553923;0.7542834332971668;0.4394109450062889
953.08197;79.0;98.02837;1;0.6688479544066775;0.7475540542596719;0.447357586113997
958.065;79.5;98.01053;1;0.67489992536807;0.7408505782947229;0.4554899092618264
963.04999;80.0;97.99226;1;0.6810977678268532;0.7341089981770557;0.46389416933872196
968.03998;80.5;97.97407;1;0.6872684714024024;0.7275177325968808;0.47233795178379484
973.02502;81.0;97.95554;1;0.6935545152316983;0.7209238625358284;0.48101786559827603
978.02301;81.5;97.93717;1;0.6997862812945264;0.7145038612003881;0.48970083948802196
983.026;82.0;97.91891;1;0.7059807313929041;0.7082346270464027;0.49840879309805974
988.04498;82.5;97.90087;1;0.7121005495623861;0.7021480327564271;0.5070871926870523
993.05701;83.0;97.88287;1;0.7182067982902511;0.6961783168723689;0.5158210051103335
998.10101;83.5;97.86537;1;0.724143428997897;0.6904709481268414;0.5243837057608323
1003.13202;84.0;97.84778;1;0.7301105909491822;0.6848277592439437;0.5330614750161641
1008.17499;84.5;97.8308;1;0.7358708189158026;0.6794670846394975;0.541505862131814
1013.19501;85.0;97.81401;1;0.7415665920347388;0.6742482810991807;0.5499210104220168
1018.229;85.5;97.7977;1;0.7470995318542619;0.6692548699087338;0.5581577104968574
1023.25098;86.0;97.78179;1;0.7524967772576153;0.6644546729119429;0.5662513997830971
1028.27295;86.5;97.76624;1;0.7577718976864113;0.6598291669651162;0.574218248923265
1033.28503;87.0;97.75111;1;0.7629045389782219;0.6553899923962481;0.5820233355935732
1038.297;87.5;97.73627;1;0.7679388018183034;0.6510935491423462;0.5897300033381315
1043.30701;88.0;97.72186;1;0.7728271931609989;0.6469751639495399;0.597261870489108
1048.32605;88.5;97.70775;1;0.7776138136915649;0.6429926927691147;0.6046832432439398
1053.32996;89.0;97.69406;1;0.7822579550851503;0.6391753471469319;0.611927508294001
1058.34204;89.5;97.68076;1;0.786769794422957;0.6355099084182769;0.6190067094163421
1063.35999;90.0;97.66775;1;0.7911832553090444;0.6319648408189513;0.6259709434814166
1068.375;90.5;97.65504;1;0.7954949453829974;0.6285395060043669;0.6328122081298979
1073.39502;91.0;97.6424;1;0.7997828889341219;0.6251696640651498;0.6396526694318099
1078.41003;91.5;97.63017;1;0.8039317457086615;0.6219433461471939;0.646306251758176
1083.43396;92.0;97.61771;1;0.8081586267725073;0.6186904197222008;0.6531203660268247
1088.44397;92.5;97.60518;1;0.8124092543591814;0.615453353487946;0.6600087965684411
1093.43994;93.0;97.59262;1;0.8166700590270719;0.612242354759115;0.6669499853112811
1098.45898;93.5;97.58021;1;0.8208799782888953;0.6091024427739583;0.6738439387555771
1103.45105;94.0;97.56783;1;0.8250797204695022;0.606002047554242;0.6807565451300318
1108.45605;94.5;97.55549;1;0.8292658932084922;0.6029429210762092;0.6876819216388784
1113.45398;95.0;97.54296;1;0.8335165207951711;0.5998681340149109;0.694749790438487
1118.46997;95.5;97.53096;1;0.8375873532804146;0.596952661763275;0.70155257437529
1123.46704;96.0;97.51912;1;0.8416039079991853;0.5941037051368873;0.7082971379595011
1128.48499;96.5;97.50746;1;0.8455594002306821;0.5913245123448359;0.7149706993184708
1133.49304;97.0;97.49675;1;0.8491926182237579;0.5887945670628199;0.721128102845721
1138.50806;97.5;97.4867;1;0.8526019404301514;0.5864401384633748;0.7269300688252593
1143.51196;98.0;97.47783;1;0.8556109641088275;0.584377738217487;0.7320701219032374
1148.52502;98.5;97.47044;1;0.8581179184476568;0.5826705039611626;0.7363663619609394
1153.54602;99.0;97.46482;1;0.8600244249949102;0.5813788370056573;0.7396420115878258
1158.55298;99.5;97.46127;1;0.8612287129384627;0.580565873487925;0.741714895989641
1163.56702;100.0;97.4598;1;0.8617273899179042;0.5802299031572322;0.7425740945347237
1168.58997;100.5;97.4598;1;0.8617273899179042;0.5802299031572322;0.7425740945347237
1173.59705;101.0;97.46203;1;0.8609708935477307;0.5807397250558516;0.7412708795363778
1178.61597;101.5;97.46667;1;0.859396838320105;0.5818033971097317;0.7385629257145928
1183.62598;102.0;97.47293;1;0.8572732207069659;0.5832446271769296;0.7349173749412943
1188.61804;102.5;97.48037;1;0.8547493045661191;0.5849668403694179;0.7305963736562642
1193.60706;103.0;97.48814;1;0.8521134405319214;0.5867763330758885;0.7260973155351483
1198.60901;103.5;97.49647;1;0.8492876043150814;0.588728715054344;0.7212894348432504
1203.60706;104.0;97.50531;1;0.8462887577176216;0.5908148908281178;0.7162046614392352
1208.61096;104.5;97.51402;1;0.8433340118054132;0.5928848985108496;0.7112122554678129
1213.62903;105.0;97.52273;1;0.8403792658932097;0.5949694623517009;0.7062373105432099
1218.64294;105.5;97.53126;1;0.8374855824682801;0.5970252031400644;0.7013821008422344
1223.64905;106.0;97.53972;1;0.8346156455661838;0.5990781537060831;0.6965832758238578
1228.65796;106.5;97.54791;1;0.8318373023950056;0.6010790794791387;0.6919532976558
1233.66699;107.0;97.55572;1;0.8291878689191958;0.6029996563405161;0.6875525219627575
1238.66895;107.5;97.56312;1;0.8266775222199612;0.6048307672105311;0.6833957257437344
1243.68103;108.0;97.57032;1;0.8242350227288161;0.6066230943992614;0.679363372692772
1248.68005;108.5;97.57647;1;0.8221487210801272;0.6081624737469726;0.6759285195736887
1253.68103;109.0;97.58202;1;0.8202659610557024;0.6095583917153989;0.672836246866635
1258.68799;109.5;97.58677;1;0.8186545898636264;0.6107581954475957;0.6701953375047823
1263.68799;110.0;97.591;1;0.8172196214125806;0.611830635118305;0.6678479096217216
1268.69104;110.5;97.59383;1;0.8162595834181431;0.6125502354363984;0.6662797075219605
1273.69202;111.0;97.5953;1;0.8157609064387016;0.6129246891504126;0.665465856473692
1278.69397;111.5;97.5956;1;0.8156591356265672;0.6130011645316932;0.6652998255310788
1283.72205;112.0;97.59266;1;0.816656489585455;0.6122525276861588;0.6669278219820384
1288.71997;112.5;97.58549;1;0.8190888119953885;0.6104344152643791;0.6709064819360169
1293.72705;113.0;97.57454;1;0.822803446638171;0.6076785434515514;0.6770055117996534
1298.70801;113.5;97.55814;1;0.8283669177013382;0.603597257828048;0.6861917503420156
1303.66699;114.0;97.53459;1;0.8363559264536281;0.5978315979897855;0.6994912357141065
1308.62402;114.5;97.50188;1;0.8474523373363184;0.5900036827694427;0.7181754640567892
1313.59595;115.0;97.45294;1;0.8640545491553027;0.57866716920685;0.7465902639159734
1318.56799;115.5;97.39569;1;0.8834758124703159;0.5659464503073757;0.7805295112200848
1323.55603;116.0;97.32509;1;0.9074258769251633;0.5510091928326568;0.8234217221134016
1328.53796;116.5;97.24276;1;0.9353551801343358;0.5345562954258616;0.8748893130041359
1329.93553;117.0;97.12121;2;0.976589320849445;0.511985938536678;0.9537267015971803
1321.83816;117.5;97.00508;2;1.015984802225386;0.49213334579888734;1.0322251183529565
1306.01304;118.0;96.94313;2;1.0370004749304575;0.48215985632362474;1.0753699850059946
1284.02412;118.5;96.91895;2;1.045203202388223;0.47837587835315826;1.0924497342825965
1258.14;119.0;96.91399;2;1.0468858131487893;0.4776070071062633;1.0959699057722017
1231.07443;119.5;96.92351;2;1.0436562860438312;0.4790849312040661;1.0892184433988032
1204.96028;120.0;96.94113;2;1.03767894701133;0.48184460274545854;1.0767775970705424
1180.89492;120.5;96.96305;2;1.030242893004954;0.4853224452164172;1.0614004185872172
1159.14953;121.0;96.98614;2;1.0224099328312617;0.48904063227887273;1.045322070752025
1139.43453;121.5;97.00943;2;1.0145091254494893;0.49284918928498506;1.0292287656202876
1121.06333;122.0;97.02822;2;1.008134880249676;0.49596538101743826;1.0163359367760283
1103.34744;122.5;97.04131;2;1.0036942804803595;0.4981596584975101;1.0074022086689864
1085.65694;123.0;97.04981;2;1.000810774136646;0.49959494134276006;1.0016222056279929
1067.57109;123.5;97.05412;2;0.9993486668023617;0.5003258788545355;0.9986977578396576
1048.85335;124.0;97.05575;2;0.9987957120564475;0.5006028700008498;0.9975928744223459
1029.4782;124.5;97.05631;2;0.9986057398738052;0.5006981034008331;0.9972134237089099
1009.56257;125.0;97.0565;2;0.9985412850261209;0.5007304229658571;0.9970846979016169
989.33455;125.5;97.0565;2;0.9985412850261209;0.5007304229658571;0.9970846979016169
968.95854;126.0;97.05646;2;0.998554854467738;0.5007236185001737;0.9971117973810854
948.59269;126.5;97.05627;2;0.9986193093154221;0.5006912998135017;0.9972405249376106
928.38181;127.0;97.05629;2;0.9986125245946113;0.5006947015840564;0.9972269742772231
908.39184;127.5;97.05627;2;0.9986193093154221;0.5006912998135017;0.9972405249376106
888.66471;128.0;97.0562;2;0.9986430558382506;0.5006793939805702;0.9972879529739593
869.22319;128.5;97.05612;2;0.9986701947214845;0.5006657880076647;0.9973421578250479
849.96715;129.0;97.05608;2;0.9986837641631063;0.5006589852985127;0.997369260802991
830.88047;129.5;97.05601;2;0.9987075106859348;0.5006470810023135;0.9974166919004965
811.93253;130.0;97.05586;2;0.998758396092002;0.500621573702337;0.9975183337642684
793.07812;130.5;97.05586;2;0.998758396092002;0.500621573702337;0.9975183337642684
774.31034;131.0;97.05563;2;0.9988364203813032;0.500582467556726;0.9976741946801354
755.57821;131.5;97.05548;2;0.9988873057873656;0.5005569668400968;0.997775849663142
737.00622;132.0;97.05518;2;0.9989890765995001;0.5005059732003982;0.9979791751651219
718.81053;132.5;97.05511;2;0.9990128231223285;0.5004940761794159;0.9980266207628449
701.06775;133.0;97.05488;2;0.9990908474116297;0.5004549899494755;0.9981825213816883
683.93728;133.5;97.05465;2;0.9991688717009308;0.5004159098239591;0.9983384341761111
667.38557;134.0;97.05446;2;0.9992333265486102;0.5003836308452791;0.9984672408854014
651.38282;134.5;97.05424;2;0.9993079584775107;0.5003462603878106;0.9986163958764903
635.88545;135.0;97.05405;2;0.9993724133251901;0.500313990393592;0.9987452205154146
620.82122;135.5;97.0539;2;0.9994232987312573;0.5002885170225042;0.9988469300468681
606.22102;136.0;97.05371;2;0.9994877535789416;0.5002562544759674;0.998975769554279
591.94689;136.5;97.05364;2;0.99951150010177;0.5002443693235047;0.9990232388356907
578.05386;137.0;97.05345;2;0.9995759549494542;0.5002121124705162;0.9991520897131132
564.53952;137.5;97.05325;2;0.999643802157539;0.5001781623822866;0.999287731191981
551.4266;138.0;97.05303;2;0.9997184340864348;0.5001408226076288;0.9994369474522332
538.67626;138.5;97.05295;2;0.9997455729696735;0.5001272458899572;0.9994912106724607
526.29481;139.0;97.0528;2;0.9997964583757359;0.5001017915309456;0.9995929581806647
514.23943;139.5;97.0528;2;0.9997964583757359;0.5001017915309456;0.9995929581806647
502.47136;140.0;97.05254;2;0.9998846597462534;0.5000576767793277;0.999769332795881
491.01803;140.5;97.0525;2;0.9998982291878704;0.500050890585241;0.9997964687330391
479.84023;141.0;97.05235;2;0.9999491145939328;0.5000254439977618;0.9998982317771901
468.92596;141.5;97.05223;2;0.9999898229187885;0.5000050885923928;0.9999796459411499
458.30428;142.0;97.0522;2;1.0;0.5;1.0
