##Temp./Â°C,Time/min,Mass/%,Segment,Alpha,F_alpha,G_alpha
219.492,6.0,99.92868,1.0,0.02,39.862323402313066,0.0003094490455233
251.942,8.5,99.91261,1.0,0.03,32.439300919430075,0.0004654930884965
303.55099,13.5,99.8845,1.0,0.04,24.42117650093214,0.0008158332923524
369.46301,20.5,99.85521,1.0,0.05,19.378219341145734,0.001286570192654
408.90601,24.5,99.82544,1.0,0.06,15.986481002693385,0.0018767251797965
434.12701,27.0,99.79559,1.0,0.07,13.577273639450716,0.0025827712170842
449.07001,28.5,99.76903,1.0,0.08,11.956944424049476,0.0033082622091109
458.953,29.5,99.74522,1.0,0.09,10.791399716324014,0.0040372793052302
468.759,30.5,99.71507,1.0,0.1,9.594815430913792,0.0050681885478235
473.66299,31.0,99.69711,1.0,0.11,8.995145191800043,0.005740056297492
483.439,32.0,99.65583,1.0,0.12,7.853834328188817,0.0074496943669197
488.332,32.5,99.63239,1.0,0.13,7.319716939203245,0.0085241912671343
493.237,33.0,99.60673,1.0,0.14,6.807900011499714,0.0097876212901725
498.13901,33.5,99.579,1.0,0.15,6.324810859193102,0.0112564585702698
503.06,34.0,99.54994,1.0,0.16,5.882298270788032,0.0129123911898843
508.008,34.5,99.51893,1.0,0.17,5.468910358253278,0.0148126911938228
512.95801,35.0,99.48671,1.0,0.18,5.092151367683817,0.0169347435301659
517.92798,35.5,99.45353,1.0,0.19,4.750445180827528,0.0192793770527501
522.91699,36.0,99.41984,1.0,0.2,4.443323271822372,0.0218278333266045
527.93201,36.5,99.38693,1.0,0.21,4.175758026831663,0.0244828865914289
532.96002,37.0,99.3546,1.0,0.22,3.9393426877691633,0.0272528258377376
538.013,37.5,99.32347,1.0,0.24,3.7329317133316855,0.030073559779761
543.05701,38.0,99.29445,1.0,0.25,3.5568084954068238,0.0328407292146111
553.20398,39.0,99.2423,1.0,0.26,3.2739658612648763,0.0381529588295538
558.28497,39.5,99.21947,1.0,0.27,3.16193898531092,0.0406180573349714
563.35303,40.0,99.198,1.0,0.28,3.0623497355818703,0.0430150218710378
568.422,40.5,99.17831,1.0,0.29,2.9755453938929954,0.0452810224662162
578.49799,41.5,99.14344,1.0,0.3,2.8315039602525007,0.049455028128974
588.49402,42.5,99.11228,1.0,0.31,2.712247730682792,0.0533615524254863
598.46997,43.5,99.0831,1.0,0.32,2.607821877797487,0.0571733898156811
608.396,44.5,99.05507,1.0,0.33,2.51349709359324,0.0609769425862622
618.31403,45.5,99.0276,1.0,0.34,2.426250090749713,0.0648414234250044
633.18201,47.0,98.9859,1.0,0.35,2.3026870761698204,0.070971237455108
638.15302,47.5,98.97191,1.0,0.36,2.263436272834599,0.0730999523159879
648.08899,48.5,98.94311,1.0,0.37,2.1858393900110302,0.0775981185579466
658.01703,49.5,98.91403,1.0,0.38,2.1115744637050256,0.0823004888455627
668.06598,50.5,98.88429,1.0,0.39,2.0395352179080706,0.0872790812130845
678.16101,51.5,98.85323,1.0,0.4,1.9681873627561184,0.0926647367161174
688.19299,52.5,98.82138,1.0,0.41,1.898823755138996,0.09838834209431
698.18103,53.5,98.78908,1.0,0.42,1.8320967471170737,0.1044045196543193
703.15802,54.0,98.7727,1.0,0.43,1.799557522556808,0.1075382229616395
713.08197,55.0,98.73943,1.0,0.44,1.7359806496065922,0.1140775227466964
723.00299,56.0,98.70584,1.0,0.45,1.674988216428917,0.120920797746141
727.96802,56.5,98.68879,1.0,0.46,1.645177798269895,0.1244886969390565
737.91199,57.5,98.65525,1.0,0.47,1.5886499507914515,0.1316959793676016
747.84601,58.5,98.62211,1.0,0.48,1.5353786427187794,0.1390674961290811
757.79498,59.5,98.58933,1.0,0.49,1.485029279670404,0.1466089905167802
762.76703,60.0,98.57336,1.0,0.5,1.4612942958582065,0.1503748689180766
772.71899,61.0,98.54152,1.0,0.51,1.4154383659307206,0.1580657899082364
782.68597,62.0,98.51076,1.0,0.52,1.3728906828924108,0.1657312683888833
792.651,63.0,98.48035,1.0,0.53,1.3324132217239557,0.1735420346586324
802.66199,64.0,98.45114,1.0,0.54,1.294927916245265,0.1812670807227018
812.65997,65.0,98.42288,1.0,0.55,1.2598869446301495,0.1889529521930077
822.664,66.0,98.39574,1.0,0.56,1.227306212539812,0.1965347969805403
832.71198,67.0,98.36952,1.0,0.57,1.1967743144125151,0.2040502576393475
842.76599,68.0,98.34375,1.0,0.58,1.1676249292155143,0.2116231366077066
857.84198,69.5,98.30541,1.0,0.59,1.1257424788443615,0.2232403302971643
872.81097,71.0,98.2673,1.0,0.6,1.0857599225629853,0.2352151977123859
877.79102,71.5,98.25473,1.0,0.61,1.0729127565108616,0.2392607621678164
887.77502,72.5,98.22862,1.0,0.62,1.0467410585709789,0.2478194528673639
902.82703,74.0,98.18723,1.0,0.63,1.0066053648562283,0.2618271026713394
912.89398,75.0,98.15878,1.0,0.64,0.9799227294428984,0.2717779400589
922.95697,76.0,98.12848,1.0,0.65,0.9522663484499954,0.282674045442313
927.99402,76.5,98.11282,1.0,0.66,0.9382663338928776,0.2884290145452319
938.05701,77.5,98.07991,1.0,0.67,0.9094653228390126,0.3008049045778143
948.08002,78.5,98.04596,1.0,0.68,0.8805902725021683,0.3139833502536706
958.065,79.5,98.01053,1.0,0.69,0.8513042089654734,0.328198325826379
963.04999,80.0,97.99226,1.0,0.7,0.8365219000452903,0.3357189002239607
973.02502,81.0,97.95554,1.0,0.71,0.8074307278819606,0.3512397048676611
978.02301,81.5,97.93717,1.0,0.72,0.7931723647942239,0.3592135101098088
988.04498,82.5,97.90087,1.0,0.73,0.7655400308182374,0.3753957545719719
993.05701,83.0,97.88287,1.0,0.74,0.7520917076398324,0.3836360965774539
1003.13202,84.0,97.84778,1.0,0.75,0.7263269095399874,0.4001282883990577
1013.19501,85.0,97.81401,1.0,0.76,0.7020578775992724,0.4165558351327665
1018.229,85.5,97.7977,1.0,0.77,0.6905086981090313,0.4246930086150838
1028.27295,86.5,97.76624,1.0,0.78,0.6685258286994306,0.440777455332672
1038.297,87.5,97.73627,1.0,0.79,0.647917858131346,0.4565956529232291
1048.32605,88.5,97.70775,1.0,0.8,0.6285811529387312,0.4721194035304233
1058.34204,89.5,97.68076,1.0,0.81,0.6105034219866494,0.4872537840053879
1073.39502,91.0,97.6424,1.0,0.82,0.5851338481274412,0.5095476640679901
1088.44397,92.5,97.60518,1.0,0.83,0.560820279410211,0.532116590494656
1278.69397,111.5,97.5956,1.0,0.84,0.5546017706089934,0.5380835312297696
1108.45605,94.5,97.55549,1.0,0.85,0.5286988694097995,0.5638123084106965
1213.62903,105.0,97.52273,1.0,0.86,0.5076482280485987,0.5857768716698843
1128.48499,96.5,97.50746,1.0,0.87,0.4978491627372436,0.596327832186647
1188.61804,102.5,97.48037,1.0,0.88,0.4804556931669165,0.6155675424204219
1318.56799,115.5,97.39569,1.0,0.9,0.4254872029949568,0.6805686478956448
1323.55603,116.0,97.32509,1.0,0.93,0.3777014491136897,0.7416722248278198
1328.53796,116.5,97.24276,1.0,0.96,0.3159757684875811,0.8241513285534688
1329.93553,117.0,97.12121,2.0,1.0,0.0,
