##Temp./Â°C,Time/min,Mass/%,Segment,Alpha,F_alpha,G_alpha
219.492,6.0,99.92868,1.0,0.02,1.975070330358159,0.0124648348209205
251.942,8.5,99.91261,1.0,0.03,1.9694095521776684,0.0152952239111657
303.55099,13.5,99.8845,1.0,0.04,1.959468271681153,0.0202658641594236
369.46301,20.5,99.85521,1.0,0.05,1.949055733811206,0.0254721330943969
408.90601,24.5,99.82544,1.0,0.06,1.9384152425119268,0.0307923787440366
434.12701,27.0,99.79559,1.0,0.07,1.927687187665566,0.036156406167217
449.07001,28.5,99.76903,1.0,0.08,1.918091108271464,0.0409544458642678
458.953,29.5,99.74522,1.0,0.09,1.909447604828738,0.0452761975856309
468.759,30.5,99.71507,1.0,0.1,1.8984460895362505,0.0507769552318747
473.66299,31.0,99.69711,1.0,0.11,1.8918622111282049,0.0540688944358976
483.439,32.0,99.65583,1.0,0.12,1.8766419995497436,0.0616790002251282
488.332,32.5,99.63239,1.0,0.13,1.8679443126909752,0.0660278436545124
493.237,33.0,99.60673,1.0,0.14,1.858376196266242,0.070811901866879
498.13901,33.5,99.579,1.0,0.15,1.8479805220771144,0.0760097389614429
503.06,34.0,99.54994,1.0,0.16,1.8370231175642648,0.0814884412178676
508.008,34.5,99.51893,1.0,0.17,1.8252578960976635,0.0873710519511683
512.95801,35.0,99.48671,1.0,0.18,1.812952723638748,0.0935236381806259
517.92798,35.5,99.45353,1.0,0.19,1.8001930105623285,0.0999034947188357
522.91699,36.0,99.41984,1.0,0.2,1.7871439621219547,0.1064280189390226
527.93201,36.5,99.38693,1.0,0.21,1.7743043696321072,0.1128478151839463
532.96002,37.0,99.3546,1.0,0.22,1.7615999389717365,0.1192000305141318
538.013,37.5,99.32347,1.0,0.24,1.7492798692797338,0.1253600653601331
543.05701,38.0,99.29445,1.0,0.25,1.7377161921507327,0.1311419039246336
553.20398,39.0,99.2423,1.0,0.26,1.716740098332762,0.1416299508336189
558.28497,39.5,99.21947,1.0,0.27,1.7074761797421691,0.1462619101289154
563.35303,40.0,99.198,1.0,0.28,1.6987180243843765,0.1506409878078117
568.422,40.5,99.17831,1.0,0.29,1.6906460923816409,0.1546769538091795
578.49799,41.5,99.14344,1.0,0.3,1.6762557376538836,0.1618721311730582
588.49402,42.5,99.11228,1.0,0.31,1.6632911140025544,0.1683544429987228
598.46997,43.5,99.0831,1.0,0.32,1.6510579994929686,0.1744710002535157
608.396,44.5,99.05507,1.0,0.33,1.6392210342168718,0.1803894828915641
618.31403,45.5,99.0276,1.0,0.34,1.6275370303124184,0.1862314848437908
633.18201,47.0,98.9859,1.0,0.35,1.6096383988647742,0.1951808005676129
638.15302,47.5,98.97191,1.0,0.36,1.6035888040832376,0.1982055979583812
648.08899,48.5,98.94311,1.0,0.37,1.5910626134636978,0.2044686932681511
658.01703,49.5,98.91403,1.0,0.38,1.5783137758373085,0.2108431120813457
668.06598,50.5,98.88429,1.0,0.39,1.5651681884314734,0.2174159057842632
678.16101,51.5,98.85323,1.0,0.4,1.551320223953197,0.2243398880234015
688.19299,52.5,98.82138,1.0,0.41,1.5369904791549076,0.2315047604225462
698.18103,53.5,98.78908,1.0,0.42,1.5223205201541077,0.2388397399229461
703.15802,54.0,98.7727,1.0,0.43,1.5148267900671384,0.2425866049664308
713.08197,55.0,98.73943,1.0,0.44,1.4994907297125848,0.2502546351437076
723.00299,56.0,98.70584,1.0,0.45,1.4838463740669123,0.2580768129665438
727.96802,56.5,98.68879,1.0,0.46,1.4758419810304562,0.2620790094847719
737.91199,57.5,98.65525,1.0,0.47,1.459968027027464,0.270015986486268
747.84601,58.5,98.62211,1.0,0.48,1.4441120164229655,0.2779439917885171
757.79498,59.5,98.58933,1.0,0.49,1.428255090020569,0.2858724549897155
762.76703,60.0,98.57336,1.0,0.5,1.4204656714554014,0.2897671642722993
772.71899,61.0,98.54152,1.0,0.51,1.4048067177645789,0.2975966411177106
782.68597,62.0,98.51076,1.0,0.52,1.3895113296561978,0.3052443351719011
792.651,63.0,98.48035,1.0,0.53,1.3742226426749466,0.3128886786625267
802.66199,64.0,98.45114,1.0,0.54,1.3593753621537192,0.3203123189231404
812.65997,65.0,98.42288,1.0,0.55,1.344854965357971,0.3275725173210144
822.664,66.0,98.39574,1.0,0.56,1.33076090634082,0.33461954682959
832.71198,67.0,98.36952,1.0,0.57,1.3170013730781147,0.3414993134609426
842.76599,68.0,98.34375,1.0,0.58,1.3033364516622077,0.3483317741688962
857.84198,69.5,98.30541,1.0,0.59,1.282736732315766,0.358631633842117
872.81097,71.0,98.2673,1.0,0.6,1.2619273835465872,0.3690363082267064
877.79102,71.5,98.25473,1.0,0.61,1.2549880676738072,0.3725059661630964
887.77502,72.5,98.22862,1.0,0.62,1.2404498856628214,0.3797750571685893
902.82703,74.0,98.18723,1.0,0.63,1.217047922403803,0.3914760387980983
912.89398,75.0,98.15878,1.0,0.64,1.2006977755619233,0.3996511122190384
922.95697,76.0,98.12848,1.0,0.65,1.1830359785862732,0.4084820107068634
927.99402,76.5,98.11282,1.0,0.66,1.1738036397830347,0.4130981801084826
938.05701,77.5,98.07991,1.0,0.67,1.1541609244444688,0.4229195377777656
948.08002,78.5,98.04596,1.0,0.68,1.1335408429758114,0.4332295785120943
958.065,79.5,98.01053,1.0,0.69,1.1116140635745655,0.4441929682127171
963.04999,80.0,97.99226,1.0,0.7,1.100136428281265,0.4499317858593676
973.02502,81.0,97.95554,1.0,0.71,1.0766980657278002,0.4616509671360999
978.02301,81.5,97.93717,1.0,0.72,1.0647789028576038,0.4676105485711981
988.04498,82.5,97.90087,1.0,0.73,1.0408247952458385,0.4795876023770808
993.05701,83.0,97.88287,1.0,0.74,1.0287398828234209,0.4856300585882895
1003.13202,84.0,97.84778,1.0,0.75,1.0047632312433192,0.4976183843783404
1013.19501,85.0,97.81401,1.0,0.76,0.9811353928572693,0.5094323035713654
1018.229,85.5,97.7977,1.0,0.77,0.9695175913959808,0.5152412043020096
1028.27295,86.5,97.76624,1.0,0.78,0.9467056301355912,0.5266471849322045
1038.297,87.5,97.73627,1.0,0.79,0.9244506771583828,0.5377746614208085
1048.32605,88.5,97.70775,1.0,0.8,0.9027631440329796,0.5486184279835102
1058.34204,89.5,97.68076,1.0,0.81,0.8817479385405025,0.5591260307297488
1073.39502,91.0,97.6424,1.0,0.82,0.8509872242683224,0.5745063878658387
1088.44397,92.5,97.60518,1.0,0.83,0.820038464615078,0.589980767692461
1278.69397,111.5,97.5956,1.0,0.84,0.8118817249832223,0.5940591375083888
1108.45605,94.5,97.55549,1.0,0.85,0.7768012531874218,0.6115993734062891
1213.62903,105.0,97.52273,1.0,0.86,0.7469277492496882,0.6265361253751559
1128.48499,96.5,97.50746,1.0,0.87,0.732587069961701,0.6337064650191495
1188.61804,102.5,97.48037,1.0,0.88,0.7064297563842724,0.6467851218078637
1318.56799,115.5,97.39569,1.0,0.9,0.6175617020374968,0.6912191489812516
1323.55603,116.0,97.32509,1.0,0.93,0.5322458886642703,0.7338770556678649
1328.53796,116.5,97.24276,1.0,0.96,0.4109627743120164,0.7945186128439918
1329.93553,117.0,97.12121,2.0,1.0,0.0,1.0
