##Temp./Â°C;Time/min;Mass/%;Segment
120.524;0.0;100.0;1
129.022;0.5;99.98645;1
137.681;1.0;99.97589;1
146.403;1.5;99.96781;1
155.10699;2.0;99.96158;1
163.771;2.5;99.95623;1
172.30701;3.0;99.9517;1
180.67599;3.5;99.9474;1
188.91;4.0;99.94332;1
196.935;4.5;99.93932;1
204.716;5.0;99.93562;1
212.235;5.5;99.93204;1
219.492;6.0;99.92868;1
226.481;6.5;99.92521;1
233.21201;7.0;99.92208;1
239.69099;7.5;99.91891;1
245.929;8.0;99.91563;1
251.942;8.5;99.91261;1
257.746;9.0;99.90943;1
263.35999;9.5;99.90616;1
268.79001;10.0;99.90329;1
274.069;10.5;99.90034;1
279.207;11.0;99.89744;1
284.24301;11.5;99.89465;1
289.16501;12.0;99.89204;1
294.017;12.5;99.88944;1
298.806;13.0;99.88687;1
303.55099;13.5;99.8845;1
308.263;14.0;99.88212;1
312.94199;14.5;99.88023;1
317.61401;15.0;99.87827;1
322.289;15.5;99.87631;1
326.94501;16.0;99.87442;1
331.62799;16.5;99.87261;1
336.284;17.0;99.8708;1
340.98999;17.5;99.86895;1
345.69601;18.0;99.86695;1
350.423;18.5;99.8648;1
355.15201;19.0;99.86273;1
359.89301;19.5;99.86042;1
364.66699;20.0;99.8579;1
369.46301;20.5;99.85521;1
374.27399;21.0;99.85223;1
379.12;21.5;99.84929;1
384.005;22.0;99.84589;1
388.923;22.5;99.84242;1
393.88199;23.0;99.83804;1
398.867;23.5;99.83431;1
403.888;24.0;99.83004;1
408.90601;24.5;99.82544;1
413.95499;25.0;99.8205;1
419.01401;25.5;99.81499;1
424.064;26.0;99.80902;1
429.10199;26.5;99.80276;1
434.12701;27.0;99.79559;1
439.13699;27.5;99.78779;1
444.103;28.0;99.77892;1
449.07001;28.5;99.76903;1
454.01999;29.0;99.75786;1
458.953;29.5;99.74522;1
463.862;30.0;99.73107;1
468.759;30.5;99.71507;1
473.66299;31.0;99.69711;1
478.55301;31.5;99.67757;1
483.439;32.0;99.65583;1
488.332;32.5;99.63239;1
493.237;33.0;99.60673;1
498.13901;33.5;99.579;1
503.06;34.0;99.54994;1
508.008;34.5;99.51893;1
512.95801;35.0;99.48671;1
517.92798;35.5;99.45353;1
522.91699;36.0;99.41984;1
527.93201;36.5;99.38693;1
532.96002;37.0;99.3546;1
538.013;37.5;99.32347;1
543.05701;38.0;99.29445;1
548.13202;38.5;99.26736;1
553.20398;39.0;99.2423;1
558.28497;39.5;99.21947;1
563.35303;40.0;99.198;1
568.422;40.5;99.17831;1
573.46899;41.0;99.16024;1
578.49799;41.5;99.14344;1
583.50702;42.0;99.12755;1
588.49402;42.5;99.11228;1
593.48999;43.0;99.09755;1
598.46997;43.5;99.0831;1
603.42603;44.0;99.06899;1
608.396;44.5;99.05507;1
613.35901;45.0;99.04141;1
618.31403;45.5;99.0276;1
623.26898;46.0;99.01371;1
628.22699;46.5;98.99986;1
633.18201;47.0;98.9859;1
638.15302;47.5;98.97191;1
643.12201;48.0;98.95756;1
648.08899;48.5;98.94311;1
653.05701;49.0;98.92878;1
658.01703;49.5;98.91403;1
663.04303;50.0;98.89919;1
668.06598;50.5;98.88429;1
673.12;51.0;98.86885;1
678.16101;51.5;98.85323;1
683.19598;52.0;98.83746;1
688.19299;52.5;98.82138;1
693.20099;53.0;98.80543;1
698.18103;53.5;98.78908;1
703.15802;54.0;98.7727;1
708.117;54.5;98.75626;1
713.08197;55.0;98.73943;1
718.03497;55.5;98.72249;1
723.00299;56.0;98.70584;1
727.96802;56.5;98.68879;1
732.93298;57.0;98.67192;1
737.91199;57.5;98.65525;1
742.88599;58.0;98.6386;1
747.84601;58.5;98.62211;1
752.82599;59.0;98.60577;1
757.79498;59.5;98.58933;1
762.76703;60.0;98.57336;1
767.74402;60.5;98.55721;1
772.71899;61.0;98.54152;1
777.70801;61.5;98.52608;1
782.68597;62.0;98.51076;1
787.66602;62.5;98.49544;1
792.651;63.0;98.48035;1
797.646;63.5;98.46566;1
802.66199;64.0;98.45114;1
807.66302;64.5;98.43695;1
812.65997;65.0;98.42288;1
817.67401;65.5;98.40926;1
822.664;66.0;98.39574;1
827.67401;66.5;98.38265;1
832.71198;67.0;98.36952;1
837.74103;67.5;98.35646;1
842.76599;68.0;98.34375;1
847.79602;68.5;98.33077;1
852.83301;69.0;98.31802;1
857.84198;69.5;98.30541;1
862.83698;70.0;98.2927;1
867.828;70.5;98.28002;1
872.81097;71.0;98.2673;1
877.79102;71.5;98.25473;1
882.78699;72.0;98.24187;1
887.77502;72.5;98.22862;1
892.78601;73.0;98.215;1
897.79901;73.5;98.2013;1
902.82703;74.0;98.18723;1
907.85999;74.5;98.17301;1
912.89398;75.0;98.15878;1
917.93201;75.5;98.14372;1
922.95697;76.0;98.12848;1
927.99402;76.5;98.11282;1
933.034;77.0;98.09648;1
938.05701;77.5;98.07991;1
943.065;78.0;98.06313;1
948.08002;78.5;98.04596;1
953.08197;79.0;98.02837;1
958.065;79.5;98.01053;1
963.04999;80.0;97.99226;1
968.03998;80.5;97.97407;1
973.02502;81.0;97.95554;1
978.02301;81.5;97.93717;1
983.026;82.0;97.91891;1
988.04498;82.5;97.90087;1
993.05701;83.0;97.88287;1
998.10101;83.5;97.86537;1
1003.13202;84.0;97.84778;1
1008.17499;84.5;97.8308;1
1013.19501;85.0;97.81401;1
1018.229;85.5;97.7977;1
1023.25098;86.0;97.78179;1
1028.27295;86.5;97.76624;1
1033.28503;87.0;97.75111;1
1038.297;87.5;97.73627;1
1043.30701;88.0;97.72186;1
1048.32605;88.5;97.70775;1
1053.32996;89.0;97.69406;1
1058.34204;89.5;97.68076;1
1063.35999;90.0;97.66775;1
1068.375;90.5;97.65504;1
1073.39502;91.0;97.6424;1
1078.41003;91.5;97.63017;1
1083.43396;92.0;97.61771;1
1088.44397;92.5;97.60518;1
1093.43994;93.0;97.59262;1
1098.45898;93.5;97.58021;1
1103.45105;94.0;97.56783;1
1108.45605;94.5;97.55549;1
1113.45398;95.0;97.54296;1
1118.46997;95.5;97.53096;1
1123.46704;96.0;97.51912;1
1128.48499;96.5;97.50746;1
1133.49304;97.0;97.49675;1
1138.50806;97.5;97.4867;1
1143.51196;98.0;97.47783;1
1148.52502;98.5;97.47044;1
1153.54602;99.0;97.46482;1
1158.55298;99.5;97.46127;1
1163.56702;100.0;97.4598;1
1168.58997;100.5;97.4598;1
1173.59705;101.0;97.46203;1
1178.61597;101.5;97.46667;1
1183.62598;102.0;97.47293;1
1188.61804;102.5;97.48037;1
1193.60706;103.0;97.48814;1
1198.60901;103.5;97.49647;1
1203.60706;104.0;97.50531;1
1208.61096;104.5;97.51402;1
1213.62903;105.0;97.52273;1
1218.64294;105.5;97.53126;1
1223.64905;106.0;97.53972;1
1228.65796;106.5;97.54791;1
1233.66699;107.0;97.55572;1
1238.66895;107.5;97.56312;1
1243.68103;108.0;97.57032;1
1248.68005;108.5;97.57647;1
1253.68103;109.0;97.58202;1
1258.68799;109.5;97.58677;1
1263.68799;110.0;97.591;1
1268.69104;110.5;97.59383;1
1273.69202;111.0;97.5953;1
1278.69397;111.5;97.5956;1
1283.72205;112.0;97.59266;1
1288.71997;112.5;97.58549;1
1293.72705;113.0;97.57454;1
1298.70801;113.5;97.55814;1
1303.66699;114.0;97.53459;1
1308.62402;114.5;97.50188;1
1313.59595;115.0;97.45294;1
1318.56799;115.5;97.39569;1
1323.55603;116.0;97.32509;1
1328.53796;116.5;97.24276;1
1329.93553;117.0;97.12121;2
1321.83816;117.5;97.00508;2
1306.01304;118.0;96.94313;2
1284.02412;118.5;96.91895;2
1258.14;119.0;96.91399;2
1231.07443;119.5;96.92351;2
1204.96028;120.0;96.94113;2
1180.89492;120.5;96.96305;2
1159.14953;121.0;96.98614;2
1139.43453;121.5;97.00943;2
1121.06333;122.0;97.02822;2
1103.34744;122.5;97.04131;2
1085.65694;123.0;97.04981;2
1067.57109;123.5;97.05412;2
1048.85335;124.0;97.05575;2
1029.4782;124.5;97.05631;2
1009.56257;125.0;97.0565;2
989.33455;125.5;97.0565;2
968.95854;126.0;97.05646;2
948.59269;126.5;97.05627;2
928.38181;127.0;97.05629;2
908.39184;127.5;97.05627;2
888.66471;128.0;97.0562;2
869.22319;128.5;97.05612;2
849.96715;129.0;97.05608;2
830.88047;129.5;97.05601;2
811.93253;130.0;97.05586;2
793.07812;130.5;97.05586;2
774.31034;131.0;97.05563;2
755.57821;131.5;97.05548;2
737.00622;132.0;97.05518;2
718.81053;132.5;97.05511;2
701.06775;133.0;97.05488;2
683.93728;133.5;97.05465;2
667.38557;134.0;97.05446;2
651.38282;134.5;97.05424;2
635.88545;135.0;97.05405;2
620.82122;135.5;97.0539;2
606.22102;136.0;97.05371;2
591.94689;136.5;97.05364;2
578.05386;137.0;97.05345;2
564.53952;137.5;97.05325;2
551.4266;138.0;97.05303;2
538.67626;138.5;97.05295;2
526.29481;139.0;97.0528;2
514.23943;139.5;97.0528;2
502.47136;140.0;97.05254;2
491.01803;140.5;97.0525;2
479.84023;141.0;97.05235;2
468.92596;141.5;97.05223;2
458.30428;142.0;97.0522;2
