##Temp./Â°C;Time/min;Mass/%;Segment
119.648;0.0;100.0;1
130.702;0.25;99.98193;1
142.478;0.5;99.96674;1
154.935;0.75;99.9551;1
167.91701;1.0;99.94654;1
181.33701;1.25;99.93934;1
195.24899;1.5;99.93298;1
209.508;1.75;99.92669;1
224.035;2.0;99.92051;1
238.77499;2.25;99.91396;1
253.653;2.5;99.90726;1
268.577;2.75;99.90009;1
283.46701;3.0;99.89247;1
298.23999;3.25;99.88482;1
312.84;3.5;99.87709;1
327.189;3.75;99.86963;1
341.22601;4.0;99.86277;1
354.879;4.25;99.8566;1
368.07501;4.5;99.85072;1
380.819;4.75;99.84462;1
393.05701;5.0;99.83822;1
404.79999;5.25;99.83117;1
415.996;5.5;99.82352;1
426.72;5.75;99.81511;1
436.92001;6.0;99.80572;1
446.61801;6.25;99.79495;1
455.879;6.5;99.78256;1
464.698;6.75;99.76797;1
473.151;7.0;99.75082;1
481.26199;7.25;99.73119;1
489.07401;7.5;99.70338;1
496.62201;7.75;99.67742;1
503.944;8.0;99.6495;1
511.108;8.25;99.61908;1
518.14398;8.5;99.58653;1
525.08002;8.75;99.55171;1
531.974;9.0;99.51667;1
538.84003;9.25;99.48006;1
545.71503;9.5;99.44282;1
552.63;9.75;99.40683;1
559.60797;10.0;99.37175;1
566.672;10.25;99.33946;1
573.82599;10.5;99.30969;1
581.07898;10.75;99.28358;1
588.43103;11.0;99.2594;1
595.87701;11.25;99.24266;1
603.41803;11.5;99.22379;1
611.02002;11.75;99.20641;1
618.66699;12.0;99.19067;1
626.39301;12.25;99.17575;1
634.09698;12.5;99.1615;1
641.80798;12.75;99.14783;1
649.534;13.0;99.13449;1
657.24799;13.25;99.12115;1
664.99103;13.5;99.10732;1
672.72803;13.75;99.09311;1
680.45697;14.0;99.07864;1
688.13202;14.25;99.06375;1
695.76599;14.5;99.04879;1
703.32599;14.75;99.03356;1
710.81897;15.0;99.01776;1
718.25098;15.25;99.00158;1
725.60699;15.5;98.98541;1
732.90997;15.75;98.96862;1
740.151;16.0;98.95161;1
747.34003;16.25;98.93444;1
754.51202;16.5;98.91721;1
761.65503;16.75;98.90011;1
768.78198;17.0;98.88292;1
775.91101;17.25;98.86575;1
783.03998;17.5;98.84817;1
790.17102;17.75;98.83101;1
797.33301;18.0;98.81377;1
804.534;18.25;98.79657;1
811.75702;18.5;98.77986;1
819.01001;18.75;98.76337;1
826.29602;19.0;98.74682;1
833.61902;19.25;98.73095;1
840.96802;19.5;98.71522;1
848.34802;19.75;98.69976;1
855.77002;20.0;98.68461;1
863.20502;20.25;98.66972;1
870.65302;20.5;98.65502;1
878.10999;20.75;98.64046;1
885.552;21.0;98.62505;1
893.00702;21.25;98.61016;1
900.44702;21.5;98.59497;1
907.89001;21.75;98.57955;1
915.32703;22.0;98.56367;1
922.77698;22.25;98.54696;1
930.23297;22.5;98.52945;1
937.67902;22.75;98.51139;1
945.117;23.0;98.49218;1
952.55402;23.25;98.47217;1
959.97998;23.5;98.45129;1
967.38397;23.75;98.42921;1
974.78802;24.0;98.4053;1
982.17798;24.25;98.38196;1
989.59302;24.5;98.35566;1
996.99902;24.75;98.32941;1
1004.44299;25.0;98.30205;1
1011.90997;25.25;98.2725;1
1019.39697;25.5;98.24261;1
1026.88098;25.75;98.21154;1
1034.39294;26.0;98.17869;1
1041.93396;26.25;98.14519;1
1049.46204;26.5;98.11041;1
1057.00903;26.75;98.07472;1
1064.56897;27.0;98.03816;1
1072.12097;27.25;98.00134;1
1079.68604;27.5;97.9639;1
1087.23901;27.75;97.92564;1
1094.81494;28.0;97.88699;1
1102.37598;28.25;97.84694;1
1109.92395;28.5;97.8047;1
1117.46802;28.75;97.76075;1
1125.00098;29.0;97.71381;1
1132.51404;29.25;97.66333;1
1140.01794;29.5;97.60992;1
1147.51404;29.75;97.55373;1
1154.99805;30.0;97.48731;1
1162.48999;30.25;97.42722;1
1169.99194;30.5;97.36797;1
1177.505;30.75;97.31101;1
1185.00598;31.0;97.26078;1
1192.53796;31.25;97.21903;1
1200.12097;31.5;97.18826;1
1207.70203;31.75;97.17015;1
1215.28601;32.0;97.16056;1
1222.84595;32.25;97.15795;1
1230.39795;32.5;97.15897;1
1237.93604;32.75;97.16363;1
1245.44702;33.0;97.16821;1
1252.927;33.25;97.17235;1
1260.38098;33.5;97.17507;1
1267.82495;33.75;97.17637;1
1275.25903;34.0;97.17591;1
1282.68103;34.25;97.17053;1
1290.10303;34.5;97.16159;1
1297.51599;34.75;97.14666;1
1304.91699;35.0;97.11805;1
1312.30603;35.25;97.08429;1
1319.69299;35.5;97.03929;1
1327.05505;35.75;96.98337;1
1333.44702;36.0;96.92672;2
1336.58496;36.25;96.83984;2
1336.56006;36.5;96.75304;2
1333.98303;36.75;96.68181;2
1329.15796;37.0;96.62479;2
1322.29602;37.25;96.57891;2
1313.61401;37.5;96.54538;2
1303.28796;37.75;96.52435;2
1291.50598;38.0;96.50567;2
1278.51294;38.25;96.49256;2
1264.60706;38.5;96.48392;2
1250.18103;38.75;96.4779;2
1235.54797;39.0;96.47434;2
1221.03894;39.25;96.47195;2
1206.82495;39.5;96.47032;2
1193.13098;39.75;96.46941;2
1180.03003;40.0;96.46892;2
1167.58105;40.25;96.46858;2
1155.78296;40.5;96.46824;2
1144.62598;40.75;96.46801;2
1134.05505;41.0;96.46797;2
1123.96997;41.25;96.46801;2
1114.30396;41.5;96.46805;2
1104.91101;41.75;96.46809;2
1095.73706;42.0;96.46824;2
1086.69202;42.25;96.46832;2
1077.68396;42.5;96.46847;2
1068.63;42.75;96.46866;2
1059.51404;43.0;96.46888;2
1050.24902;43.25;96.46907;2
1040.82495;43.5;96.46919;2
1031.26099;43.75;96.46937;2
1021.52698;44.0;96.4696;2
1011.63898;44.25;96.4699;2
1001.62299;44.5;96.47006;2
991.53699;44.75;96.47021;2
981.37299;45.0;96.4704;2
971.16302;45.25;96.47058;2
960.92401;45.5;96.47074;2
950.66699;45.75;96.47085;2
940.44;46.0;96.47104;2
930.203;46.25;96.47104;2
920.03601;46.5;96.47081;2
909.90302;46.75;96.47089;2
899.83398;47.0;96.471;2
889.85101;47.25;96.47108;2
879.92499;47.5;96.47119;2
870.08502;47.75;96.47127;2
860.29303;48.0;96.47142;2
850.55902;48.25;96.47146;2
840.87299;48.5;96.47157;2
831.237;48.75;96.47161;2
821.66101;49.0;96.47168;2
812.12;49.25;96.47176;2
802.62903;49.5;96.47183;2
793.15302;49.75;96.47198;2
783.716;50.0;96.47214;2
774.30103;50.25;96.47229;2
764.89398;50.5;96.47251;2
755.50702;50.75;96.47263;2
746.211;51.0;96.47286;2
736.92499;51.25;96.47304;2
727.73297;51.5;96.4732;2
718.62903;51.75;96.47336;2
709.65601;52.0;96.47351;2
700.802;52.25;96.47366;2
692.08398;52.5;96.47389;2
683.51501;52.75;96.47411;2
675.086;53.0;96.4743;2
666.80603;53.25;96.47449;2
658.664;53.5;96.47468;2
650.64801;53.75;96.47483;2
642.745;54.0;96.47506;2
634.96698;54.25;96.47525;2
627.31299;54.5;96.47551;2
619.755;54.75;96.47574;2
612.30298;55.0;96.47589;2
604.97302;55.25;96.47631;2
597.758;55.5;96.47653;2
590.62;55.75;96.47676;2
583.59601;56.0;96.4771;2
576.68799;56.25;96.47737;2
569.86499;56.5;96.47756;2
563.14899;56.75;96.47775;2
556.54303;57.0;96.47809;2
550.03601;57.25;96.47828;2
543.64502;57.5;96.47858;2
537.354;57.75;96.4788;2
531.138;58.0;96.47907;2
525.00897;58.25;96.47941;2
518.953;58.5;96.47967;2
512.974;58.75;96.4799;2
507.04001;59.0;96.48021;2
501.20001;59.25;96.48044;2
495.42001;59.5;96.48067;2
489.70499;59.75;96.48093;2
484.05899;60.0;96.4812;2
478.474;60.25;96.4815;2
472.95801;60.5;96.48173;2
467.52301;60.75;96.48195;2
462.13901;61.0;96.48214;2
456.82001;61.25;96.48233;2
451.55301;61.5;96.48252;2
